# k =   0.000000   0.000000   0.000000 spin = 1
# <ib|Sigma_CH[1..Nb]|ib> (eV), partial and symmetrized sum with up to Nb "inner" bands
# Reporting only VBM and CBM, use 'full_ch_conv_log 1' keyword for full report.
# 1/N extrap for CH(vbm) CH(cbm) diff =  -1.00216810E+01  -9.59085502E+00   4.30826025E-01
# Error est. for CH(vbm) CH(cbm) diff =   1.07074777E+00   1.30840210E+00   2.37654336E-01
#    Nb          CH(vbm)          CH(cbm)             diff
      1  -2.43071212E-01  -2.05415867E-01   3.76553451E-02
      2  -4.86246384E-01  -4.10793044E-01   7.54533393E-02
      3  -7.60216121E-01  -5.87823574E-01   1.72392547E-01
      4  -1.03405821E+00  -7.64916759E-01   2.69141453E-01
      5  -1.93687008E+00  -1.00015364E+00   9.36716442E-01
      6  -2.83977645E+00  -1.23553854E+00   1.60423791E+00
      7  -3.88251063E+00  -1.37800248E+00   2.50450816E+00
      8  -4.92514952E+00  -1.52028258E+00   3.40486694E+00
      9  -5.04486446E+00  -2.94391417E+00   2.10095030E+00
     10  -5.16452182E+00  -4.36767904E+00   7.96842782E-01
     11  -5.25067546E+00  -4.64006983E+00   6.10605629E-01
     12  -5.33688544E+00  -4.91232688E+00   4.24558556E-01
     13  -5.43072255E+00  -5.03519684E+00   3.95525708E-01
     14  -5.52471455E+00  -5.15810510E+00   3.66609453E-01
     15  -5.59550567E+00  -5.27359415E+00   3.21911517E-01
     16  -5.66645237E+00  -5.38912923E+00   2.77323138E-01
     17  -5.81621430E+00  -5.63123482E+00   1.84979477E-01
     18  -5.96594682E+00  -5.87333535E+00   9.26114642E-02
     19  -6.13688985E+00  -5.93554267E+00   2.01347189E-01
     20  -6.30781731E+00  -5.99774656E+00   3.10070754E-01
     21  -6.38076733E+00  -6.14432475E+00   2.36442571E-01
     22  -6.45372486E+00  -6.29088484E+00   1.62840017E-01
     23  -6.61509818E+00  -6.36628815E+00   2.48810034E-01
     24  -6.77646878E+00  -6.44169145E+00   3.34777329E-01
     25  -6.93032819E+00  -6.48621938E+00   4.44108801E-01
     26  -7.08424599E+00  -6.53071118E+00   5.53534804E-01
     27  -7.20495360E+00  -6.60199593E+00   6.02957667E-01
     28  -7.32570681E+00  -6.67332559E+00   6.52381223E-01
     29  -7.40546104E+00  -6.73705624E+00   6.68404795E-01
     30  -7.48531922E+00  -6.80077407E+00   6.84545149E-01
     31  -7.56339755E+00  -6.87803851E+00   6.85359043E-01
     32  -7.64137165E+00  -6.95531590E+00   6.86055750E-01
     33  -7.67451859E+00  -6.99877848E+00   6.75740104E-01
     34  -7.70766443E+00  -7.04222222E+00   6.65442208E-01
     35  -7.74434623E+00  -7.08643854E+00   6.57907682E-01
     36  -7.78102634E+00  -7.13073735E+00   6.50288993E-01
     37  -7.82986070E+00  -7.19926012E+00   6.30600580E-01
     38  -7.87870445E+00  -7.26782212E+00   6.10882338E-01
     39  -7.92018555E+00  -7.35474436E+00   5.65441190E-01
     40  -7.96165713E+00  -7.44162849E+00   5.20028646E-01
     41  -7.98140782E+00  -7.49065111E+00   4.90756703E-01
     42  -8.00116089E+00  -7.53963566E+00   4.61525235E-01
     43  -8.03862479E+00  -7.58464195E+00   4.53982838E-01
     44  -8.07609119E+00  -7.62961026E+00   4.46480937E-01
     45  -8.14250835E+00  -7.67118477E+00   4.71323582E-01
     46  -8.20891627E+00  -7.71274851E+00   4.96167754E-01
     47  -8.27360991E+00  -7.74670902E+00   5.26900890E-01
     48  -8.33757514E+00  -7.78227262E+00   5.55302520E-01
     49  -8.42970130E+00  -7.81259396E+00   6.17107342E-01
     50  -8.52299504E+00  -7.84028247E+00   6.82712574E-01
     51  -8.56980056E+00  -7.86613815E+00   7.03662408E-01
     52  -8.61677748E+00  -7.89145472E+00   7.25322760E-01
     53  -8.66375381E+00  -7.91981506E+00   7.43938745E-01
     54  -8.71072838E+00  -7.94816913E+00   7.62559249E-01
     55  -8.72587893E+00  -7.97777722E+00   7.48101715E-01
     56  -8.74103702E+00  -8.00738585E+00   7.33651173E-01
     57  -8.76247913E+00  -8.02567592E+00   7.36803215E-01
     58  -8.78392337E+00  -8.04397736E+00   7.39946016E-01
     59  -8.80184574E+00  -8.06467503E+00   7.37170711E-01
     60  -8.81977629E+00  -8.08536687E+00   7.34409426E-01
     61  -8.83353992E+00  -8.12060047E+00   7.12939451E-01
     62  -8.84731253E+00  -8.15583336E+00   6.91479168E-01
     63  -8.86485790E+00  -8.17425038E+00   6.90607516E-01
     64  -8.88240579E+00  -8.19266706E+00   6.89738729E-01
     65  -8.89690056E+00  -8.21860343E+00   6.78297127E-01
     66  -8.91141462E+00  -8.24452296E+00   6.66891654E-01
     67  -8.93117258E+00  -8.26347473E+00   6.67697846E-01
     68  -8.95093328E+00  -8.28245292E+00   6.68480362E-01
# k =  -0.000000  -0.000000   0.500000 spin = 1
# <ib|Sigma_CH[1..Nb]|ib> (eV), partial and symmetrized sum with up to Nb "inner" bands
# Reporting only VBM and CBM, use 'full_ch_conv_log 1' keyword for full report.
# 1/N extrap for CH(vbm) CH(cbm) diff =  -9.99596706E+00  -9.82447702E+00   1.71490038E-01
# Error est. for CH(vbm) CH(cbm) diff =   1.06057829E+00   1.42527138E+00   3.64693091E-01
#    Nb          CH(vbm)          CH(cbm)             diff
      1  -2.99554009E-01  -2.56058636E-01   4.34953728E-02
      2  -6.04918343E-01  -5.04161413E-01   1.00756930E-01
      3  -8.80253987E-01  -7.50599473E-01   1.29654514E-01
      4  -1.14787485E+00  -1.00760583E+00   1.40269011E-01
      5  -1.51522194E+00  -1.10559479E+00   4.09627147E-01
      6  -1.87820600E+00  -1.21089135E+00   6.67314658E-01
      7  -3.38127052E+00  -1.36633789E+00   2.01493263E+00
      8  -4.92663698E+00  -1.50666968E+00   3.41996730E+00
      9  -5.03112546E+00  -2.97962367E+00   2.05150179E+00
     10  -5.14427918E+00  -4.38792962E+00   7.56349563E-01
     11  -5.29932076E+00  -4.51385196E+00   7.85468803E-01
     12  -5.44304329E+00  -4.70684069E+00   7.36202605E-01
     13  -5.58348138E+00  -4.90268319E+00   6.80798193E-01
     14  -5.73741346E+00  -5.03585695E+00   7.01556508E-01
     15  -5.81238932E+00  -5.28761135E+00   5.24777972E-01
     16  -5.90016450E+00  -5.47835244E+00   4.21812056E-01
     17  -6.07426352E+00  -5.58072016E+00   4.93543360E-01
     18  -6.22785053E+00  -5.67480969E+00   5.53040839E-01
     19  -6.39350739E+00  -5.74606985E+00   6.47437549E-01
     20  -6.57638378E+00  -5.80908595E+00   7.67297831E-01
     21  -6.67185690E+00  -5.91982945E+00   7.52027448E-01
     22  -6.74389915E+00  -6.01933621E+00   7.24562937E-01
     23  -6.86694629E+00  -6.10183278E+00   7.65113508E-01
     24  -6.99196259E+00  -6.18527863E+00   8.06683964E-01
     25  -7.12231229E+00  -6.34433856E+00   7.77973728E-01
     26  -7.25446153E+00  -6.50576334E+00   7.48698187E-01
     27  -7.35884420E+00  -6.72057978E+00   6.38264427E-01
     28  -7.45925646E+00  -6.91264971E+00   5.46606748E-01
     29  -7.51599411E+00  -6.97707171E+00   5.38922398E-01
     30  -7.57314263E+00  -7.04024303E+00   5.32899599E-01
     31  -7.63414608E+00  -7.08761089E+00   5.46535183E-01
     32  -7.69473824E+00  -7.13623025E+00   5.58507992E-01
     33  -7.73346564E+00  -7.17875906E+00   5.54706587E-01
     34  -7.77272230E+00  -7.22293190E+00   5.49790394E-01
     35  -7.81230704E+00  -7.26644944E+00   5.45857598E-01
     36  -7.85171685E+00  -7.30823930E+00   5.43477556E-01
     37  -7.91190130E+00  -7.36111685E+00   5.50784452E-01
     38  -7.96455784E+00  -7.41976485E+00   5.44792998E-01
     39  -8.00801703E+00  -7.47915294E+00   5.28864087E-01
     40  -8.05892272E+00  -7.53283418E+00   5.26088533E-01
     41  -8.08449839E+00  -7.58495032E+00   4.99548078E-01
     42  -8.10347000E+00  -7.62843008E+00   4.75039912E-01
     43  -8.14797555E+00  -7.68104370E+00   4.66931846E-01
     44  -8.18607692E+00  -7.72500638E+00   4.61070541E-01
     45  -8.24583143E+00  -7.77174593E+00   4.74085498E-01
     46  -8.30010137E+00  -7.81069253E+00   4.89408842E-01
     47  -8.35144961E+00  -7.84911555E+00   5.02334060E-01
     48  -8.40776386E+00  -7.90404207E+00   5.03721790E-01
     49  -8.46360612E+00  -7.94189403E+00   5.21712094E-01
     50  -8.53426567E+00  -7.98465461E+00   5.49611053E-01
     51  -8.58174025E+00  -8.01296086E+00   5.68779381E-01
     52  -8.61193902E+00  -8.03894246E+00   5.72996567E-01
     53  -8.65052177E+00  -8.06668050E+00   5.83841267E-01
     54  -8.68857890E+00  -8.09393452E+00   5.94644374E-01
     55  -8.70260925E+00  -8.11460486E+00   5.88004392E-01
     56  -8.71721290E+00  -8.13632708E+00   5.80885822E-01
     57  -8.73686073E+00  -8.15858018E+00   5.78280551E-01
     58  -8.75907851E+00  -8.18136011E+00   5.77718406E-01
     59  -8.77968397E+00  -8.20134835E+00   5.78335620E-01
     60  -8.80257307E+00  -8.22181371E+00   5.80759361E-01
     61  -8.81629717E+00  -8.23692481E+00   5.79372363E-01
     62  -8.83275216E+00  -8.26127615E+00   5.71476009E-01
     63  -8.85161638E+00  -8.29207703E+00   5.59539351E-01
     64  -8.86993928E+00  -8.32107341E+00   5.48865865E-01
     65  -8.88557459E+00  -8.33884060E+00   5.46733994E-01
     66  -8.90155710E+00  -8.35523553E+00   5.46321571E-01
     67  -8.91942961E+00  -8.37319675E+00   5.46232858E-01
     68  -8.93538877E+00  -8.39920564E+00   5.36183129E-01
# k =   0.000000   0.500000   0.500000 spin = 1
# <ib|Sigma_CH[1..Nb]|ib> (eV), partial and symmetrized sum with up to Nb "inner" bands
# Reporting only VBM and CBM, use 'full_ch_conv_log 1' keyword for full report.
# 1/N extrap for CH(vbm) CH(cbm) diff =  -9.80473038E+00  -8.90292360E+00   9.01806782E-01
# Error est. for CH(vbm) CH(cbm) diff =   1.00802767E+00   1.15520110E+00   1.47173429E-01
#    Nb          CH(vbm)          CH(cbm)             diff
      1  -3.50289437E-01  -1.69763333E-01   1.80526103E-01
      2  -7.00555025E-01  -3.39521113E-01   3.61033912E-01
      3  -1.01129044E+00  -5.74715130E-01   4.36575306E-01
      4  -1.32205684E+00  -8.09916405E-01   5.12140439E-01
      5  -2.20320459E+00  -9.30476074E-01   1.27272851E+00
      6  -3.11267146E+00  -1.03699930E+00   2.07567216E+00
      7  -3.99326148E+00  -1.15796663E+00   2.83529485E+00
      8  -4.90336849E+00  -1.26422438E+00   3.63914411E+00
      9  -5.04315743E+00  -2.07588521E+00   2.96727222E+00
     10  -5.18304974E+00  -2.88754894E+00   2.29550079E+00
     11  -5.37214010E+00  -3.68583196E+00   1.68630814E+00
     12  -5.57941788E+00  -4.46037914E+00   1.11903874E+00
     13  -5.75808080E+00  -4.62992123E+00   1.12815957E+00
     14  -5.96148463E+00  -4.76732199E+00   1.19416264E+00
     15  -6.03458524E+00  -4.99312843E+00   1.04145681E+00
     16  -6.10768445E+00  -5.21889809E+00   8.88786361E-01
     17  -6.24858655E+00  -5.31287441E+00   9.35712146E-01
     18  -6.40660376E+00  -5.39392109E+00   1.01268268E+00
     19  -6.55091951E+00  -5.48531448E+00   1.06560503E+00
     20  -6.70733246E+00  -5.56756864E+00   1.13976382E+00
     21  -6.81116528E+00  -5.69252587E+00   1.11863942E+00
     22  -6.91490970E+00  -5.81748479E+00   1.09742491E+00
     23  -7.02273383E+00  -5.93936602E+00   1.08336781E+00
     24  -7.13056192E+00  -6.06124799E+00   1.06931393E+00
     25  -7.23211437E+00  -6.15850321E+00   1.07361116E+00
     26  -7.33007298E+00  -6.26273183E+00   1.06734115E+00
     27  -7.42230013E+00  -6.35333207E+00   1.06896805E+00
     28  -7.51090444E+00  -6.45070880E+00   1.06019565E+00
     29  -7.56030444E+00  -6.49932176E+00   1.06098268E+00
     30  -7.60969201E+00  -6.54793324E+00   1.06175877E+00
     31  -7.66182651E+00  -6.59332035E+00   1.06850616E+00
     32  -7.71397346E+00  -6.63870895E+00   1.07526451E+00
     33  -7.75418801E+00  -6.68998874E+00   1.06419928E+00
     34  -7.79126954E+00  -6.73662926E+00   1.05464028E+00
     35  -7.82830666E+00  -6.78321080E+00   1.04509586E+00
     36  -7.86851017E+00  -6.83448048E+00   1.03402969E+00
     37  -7.91759288E+00  -6.88482184E+00   1.03277104E+00
     38  -7.96470495E+00  -6.94813410E+00   1.01657085E+00
     39  -8.01340729E+00  -7.00169256E+00   1.01171473E+00
     40  -8.06105570E+00  -7.06180143E+00   9.99254270E-01
     41  -8.08931922E+00  -7.09997593E+00   9.89343291E-01
     42  -8.11760338E+00  -7.13814978E+00   9.79453601E-01
     43  -8.15671527E+00  -7.17826738E+00   9.78447884E-01
     44  -8.19163073E+00  -7.21851634E+00   9.73114397E-01
     45  -8.23479843E+00  -7.25031367E+00   9.84484767E-01
     46  -8.27465122E+00  -7.28221075E+00   9.92440476E-01
     47  -8.31885739E+00  -7.31112604E+00   1.00773135E+00
     48  -8.36282369E+00  -7.33922319E+00   1.02360050E+00
     49  -8.40806710E+00  -7.36450624E+00   1.04356085E+00
     50  -8.45378295E+00  -7.39140654E+00   1.06237641E+00
     51  -8.48074842E+00  -7.41516477E+00   1.06558365E+00
     52  -8.50846756E+00  -7.44151712E+00   1.06695043E+00
     53  -8.53800329E+00  -7.46358410E+00   1.07441919E+00
     54  -8.56680219E+00  -7.48522240E+00   1.08157979E+00
     55  -8.58233151E+00  -7.50193546E+00   1.08039604E+00
     56  -8.59734941E+00  -7.51835590E+00   1.07899351E+00
     57  -8.61406834E+00  -7.53656412E+00   1.07750422E+00
     58  -8.63078948E+00  -7.55469551E+00   1.07609397E+00
     59  -8.64792834E+00  -7.57606871E+00   1.07185964E+00
     60  -8.66544975E+00  -7.59709297E+00   1.06835678E+00
     61  -8.68280865E+00  -7.61620241E+00   1.06660624E+00
     62  -8.69915164E+00  -7.63592884E+00   1.06322280E+00
     63  -8.71504212E+00  -7.65335037E+00   1.06169175E+00
     64  -8.73096563E+00  -7.67077177E+00   1.06019387E+00
     65  -8.74847696E+00  -7.69130097E+00   1.05717598E+00
     66  -8.76504280E+00  -7.71140178E+00   1.05364101E+00
     67  -8.78034433E+00  -7.72935061E+00   1.05099372E+00
     68  -8.79670271E+00  -7.74772250E+00   1.04898021E+00
# k =   0.500000   0.500000   0.500000 spin = 1
# <ib|Sigma_CH[1..Nb]|ib> (eV), partial and symmetrized sum with up to Nb "inner" bands
# Reporting only VBM and CBM, use 'full_ch_conv_log 1' keyword for full report.
# 1/N extrap for CH(vbm) CH(cbm) diff =  -9.99657742E+00  -9.82515655E+00   1.71420875E-01
# Error est. for CH(vbm) CH(cbm) diff =   1.06052999E+00   1.42530225E+00   3.64772262E-01
#    Nb          CH(vbm)          CH(cbm)             diff
      1  -2.99505596E-01  -2.55853985E-01   4.36516106E-02
      2  -6.04933705E-01  -5.04177277E-01   1.00756428E-01
      3  -8.80382894E-01  -7.50926814E-01   1.29456080E-01
      4  -1.14796540E+00  -1.00769440E+00   1.40270996E-01
      5  -1.51472935E+00  -1.10583931E+00   4.08890040E-01
      6  -1.86322858E+00  -1.21416012E+00   6.49068457E-01
      7  -3.38832168E+00  -1.36510691E+00   2.02321478E+00
      8  -4.92694402E+00  -1.50685154E+00   3.42009248E+00
      9  -5.03144498E+00  -2.97996167E+00   2.05148331E+00
     10  -5.14467999E+00  -4.38796395E+00   7.56716032E-01
     11  -5.29215993E+00  -4.52083949E+00   7.71320443E-01
     12  -5.44207855E+00  -4.70843344E+00   7.33645117E-01
     13  -5.58383056E+00  -4.90305527E+00   6.80775289E-01
     14  -5.73783336E+00  -5.03624974E+00   7.01583623E-01
     15  -5.81276967E+00  -5.28804918E+00   5.24720493E-01
     16  -5.90063279E+00  -5.47881098E+00   4.21821816E-01
     17  -6.06115402E+00  -5.58120364E+00   4.79950384E-01
     18  -6.21499040E+00  -5.67531376E+00   5.39676642E-01
     19  -6.40211382E+00  -5.74658429E+00   6.55529529E-01
     20  -6.57686886E+00  -5.80960719E+00   7.67261661E-01
     21  -6.67233970E+00  -5.92033196E+00   7.52007736E-01
     22  -6.74441943E+00  -6.01981712E+00   7.24602308E-01
     23  -6.86747353E+00  -6.10229850E+00   7.65175031E-01
     24  -6.99251597E+00  -6.18572843E+00   8.06787539E-01
     25  -7.12276631E+00  -6.34466043E+00   7.78105876E-01
     26  -7.25478130E+00  -6.50828306E+00   7.46498239E-01
     27  -7.35979772E+00  -6.71755554E+00   6.42242183E-01
     28  -7.45986423E+00  -6.91322492E+00   5.46639312E-01
     29  -7.51661600E+00  -6.97765804E+00   5.38957960E-01
     30  -7.57377148E+00  -7.04087435E+00   5.32897132E-01
     31  -7.63478413E+00  -7.08826421E+00   5.46519921E-01
     32  -7.69539287E+00  -7.13687159E+00   5.58521287E-01
     33  -7.73483379E+00  -7.18167842E+00   5.53155370E-01
     34  -7.77334890E+00  -7.22343245E+00   5.49916451E-01
     35  -7.81304762E+00  -7.26730441E+00   5.45743214E-01
     36  -7.85238999E+00  -7.30889338E+00   5.43496605E-01
     37  -7.91256717E+00  -7.36176923E+00   5.50797934E-01
     38  -7.96517087E+00  -7.42041869E+00   5.44752178E-01
     39  -8.00865437E+00  -7.47980698E+00   5.28847393E-01
     40  -8.05960886E+00  -7.53348767E+00   5.26121193E-01
     41  -8.08517544E+00  -7.58555243E+00   4.99623012E-01
     42  -8.10415067E+00  -7.62905725E+00   4.75093420E-01
     43  -8.14865757E+00  -7.68165587E+00   4.67001705E-01
     44  -8.18591111E+00  -7.72558355E+00   4.60327560E-01
     45  -8.24679007E+00  -7.77243388E+00   4.74356194E-01
     46  -8.30078888E+00  -7.81136377E+00   4.89425107E-01
     47  -8.34922574E+00  -7.85240296E+00   4.96822778E-01
     48  -8.40362037E+00  -7.90859005E+00   4.95030317E-01
     49  -8.46182180E+00  -7.94493758E+00   5.16884219E-01
     50  -8.53463598E+00  -7.98595209E+00   5.48683884E-01
     51  -8.57751262E+00  -8.01748178E+00   5.60030847E-01
     52  -8.61261301E+00  -8.03960659E+00   5.73006415E-01
     53  -8.65118139E+00  -8.06730644E+00   5.83874949E-01
     54  -8.68909130E+00  -8.09413051E+00   5.94960793E-01
     55  -8.70342571E+00  -8.11568112E+00   5.87744593E-01
     56  -8.71787929E+00  -8.13697223E+00   5.80907056E-01
     57  -8.73752848E+00  -8.15922513E+00   5.78303354E-01
     58  -8.75974392E+00  -8.18200495E+00   5.77738972E-01
     59  -8.78029674E+00  -8.20199175E+00   5.78304989E-01
     60  -8.80322973E+00  -8.22245871E+00   5.80771024E-01
     61  -8.81693050E+00  -8.23756918E+00   5.79361320E-01
     62  -8.83341549E+00  -8.26192181E+00   5.71493679E-01
     63  -8.85227215E+00  -8.29271955E+00   5.59552598E-01
     64  -8.87059858E+00  -8.32171375E+00   5.48884830E-01
     65  -8.88630677E+00  -8.33949496E+00   5.46811806E-01
     66  -8.90229528E+00  -8.35587812E+00   5.46417159E-01
     67  -8.92006844E+00  -8.37384301E+00   5.46225427E-01
     68  -8.93604743E+00  -8.39985429E+00   5.36193137E-01
