# k =   0.000000   0.000000   0.000000 spin = 1
# <ib|Sigma_CH[1..Nb]|ib> (eV), partial and symmetrized sum with up to Nb "inner" bands
# Reporting only VBM and CBM, use 'full_ch_conv_log 1' keyword for full report.
# 1/N extrap for CH(vbm) CH(cbm) diff =  -9.90806536E+00  -1.03692496E+01  -4.61184237E-01
# Error est. for CH(vbm) CH(cbm) diff =   1.67440344E+00   2.06673109E+00   3.92327648E-01
#    Nb          CH(vbm)          CH(cbm)             diff
      1  -7.41502414E-02  -4.37855617E-02   3.03646797E-02
      2  -1.48300877E-01  -8.86174232E-02   5.96834535E-02
      3  -2.40263137E-01  -1.79741458E-01   6.05216784E-02
      4  -3.33194667E-01  -2.72859375E-01   6.03352919E-02
      5  -4.45910792E-01  -3.25342568E-01   1.20568225E-01
      6  -5.65541430E-01  -3.82165185E-01   1.83376244E-01
      7  -6.57783200E-01  -4.31526451E-01   2.26256749E-01
      8  -7.55815008E-01  -4.89339271E-01   2.66475737E-01
      9  -8.08678192E-01  -5.84593026E-01   2.24085165E-01
     10  -8.61851613E-01  -6.84695594E-01   1.77156020E-01
     11  -9.18230360E-01  -7.90935980E-01   1.27294380E-01
     12  -9.74546501E-01  -9.11180765E-01   6.33657365E-02
     13  -1.12070400E+00  -9.90398886E-01   1.30305109E-01
     14  -1.26744489E+00  -1.06728656E+00   2.00158336E-01
     15  -1.32205278E+00  -1.24593413E+00   7.61186440E-02
     16  -1.37648274E+00  -1.45720804E+00  -8.07253021E-02
     17  -1.49202533E+00  -1.63549262E+00  -1.43467297E-01
     18  -1.60806439E+00  -1.79621771E+00  -1.88153319E-01
     19  -1.70652790E+00  -2.05083209E+00  -3.44304185E-01
     20  -1.80649381E+00  -2.30411385E+00  -4.97620037E-01
     21  -1.90610757E+00  -2.44712335E+00  -5.41015779E-01
     22  -2.00721138E+00  -2.62502277E+00  -6.17811399E-01
     23  -2.15036732E+00  -2.78064431E+00  -6.30276985E-01
     24  -2.29254229E+00  -2.93198321E+00  -6.39440915E-01
     25  -3.55633231E+00  -2.97797067E+00   5.78361637E-01
     26  -4.82529773E+00  -3.00147122E+00   1.82382651E+00
     27  -5.43382077E+00  -3.66766967E+00   1.76615110E+00
     28  -6.02844713E+00  -4.34679259E+00   1.68165453E+00
     29  -6.21915483E+00  -4.42402237E+00   1.79513246E+00
     30  -6.39694550E+00  -4.49557783E+00   1.90136767E+00
     31  -6.44030807E+00  -4.94297056E+00   1.49733751E+00
     32  -6.48148527E+00  -5.40553913E+00   1.07594614E+00
     33  -6.51015761E+00  -5.91815774E+00   5.91999873E-01
     34  -6.53827980E+00  -6.34158670E+00   1.96693101E-01
     35  -6.60118675E+00  -6.37649671E+00   2.24690044E-01
     36  -6.66501016E+00  -6.40731904E+00   2.57691119E-01
     37  -6.73190277E+00  -6.44130475E+00   2.90598023E-01
     38  -6.79890155E+00  -6.47458185E+00   3.24319694E-01
     39  -6.86041974E+00  -6.51993850E+00   3.40481239E-01
     40  -6.92175012E+00  -6.55819786E+00   3.63552256E-01
     41  -7.00132484E+00  -6.59168944E+00   4.09635396E-01
     42  -7.08078351E+00  -6.62921190E+00   4.51571609E-01
     43  -7.13782780E+00  -6.71140486E+00   4.26422944E-01
     44  -7.19501605E+00  -6.80726734E+00   3.87748710E-01
     45  -7.23959076E+00  -6.85659228E+00   3.82998480E-01
     46  -7.28498576E+00  -6.91841728E+00   3.66568478E-01
     47  -7.33541599E+00  -6.96905939E+00   3.66356596E-01
     48  -7.38576850E+00  -7.02657464E+00   3.59193868E-01
     49  -7.41691467E+00  -7.11542006E+00   3.01494604E-01
     50  -7.44838577E+00  -7.18463323E+00   2.63752541E-01
     51  -7.48588681E+00  -7.26515290E+00   2.20733906E-01
     52  -7.52323077E+00  -7.32353690E+00   1.99693866E-01
     53  -7.54857680E+00  -7.41750762E+00   1.31069183E-01
     54  -7.57392798E+00  -7.50480368E+00   6.91242991E-02
     55  -7.59729042E+00  -7.54551630E+00   5.17741166E-02
     56  -7.62027919E+00  -7.57766877E+00   4.26104208E-02
     57  -7.68086811E+00  -7.60883505E+00   7.20330543E-02
     58  -7.74103810E+00  -7.63819323E+00   1.02844866E-01
     59  -7.76325086E+00  -7.72023142E+00   4.30194360E-02
     60  -7.78577157E+00  -7.79692398E+00  -1.11524117E-02
     61  -7.79949314E+00  -7.82229258E+00  -2.27994499E-02
     62  -7.81322941E+00  -7.84671781E+00  -3.34884072E-02
     63  -7.83598570E+00  -7.86730514E+00  -3.13194439E-02
     64  -7.85994886E+00  -7.89624668E+00  -3.62978284E-02
     65  -7.88497941E+00  -7.92497225E+00  -3.99928405E-02
     66  -7.90819679E+00  -7.96201179E+00  -5.38149961E-02
     67  -7.92845008E+00  -7.97759191E+00  -4.91418258E-02
     68  -7.94866844E+00  -7.99723230E+00  -4.85638587E-02
     69  -7.97589416E+00  -8.01739179E+00  -4.14976393E-02
     70  -8.00360438E+00  -8.03221623E+00  -2.86118450E-02
     71  -8.02588428E+00  -8.05773217E+00  -3.18478949E-02
     72  -8.04761710E+00  -8.07288172E+00  -2.52646280E-02
     73  -8.06851080E+00  -8.11274531E+00  -4.42345176E-02
     74  -8.08946041E+00  -8.16158886E+00  -7.21284452E-02
     75  -8.11307614E+00  -8.17773253E+00  -6.46563835E-02
     76  -8.13675057E+00  -8.19763883E+00  -6.08882651E-02
     77  -8.15916732E+00  -8.22556282E+00  -6.63955055E-02
     78  -8.18158698E+00  -8.25937400E+00  -7.77870182E-02
     79  -8.20758678E+00  -8.28302599E+00  -7.54392045E-02
     80  -8.23366192E+00  -8.30251851E+00  -6.88565889E-02
# k =   0.000000   0.250000   0.000000 spin = 1
# <ib|Sigma_CH[1..Nb]|ib> (eV), partial and symmetrized sum with up to Nb "inner" bands
# Reporting only VBM and CBM, use 'full_ch_conv_log 1' keyword for full report.
# 1/N extrap for CH(vbm) CH(cbm) diff =  -1.00855354E+01  -9.80232063E+00   2.83214726E-01
# Error est. for CH(vbm) CH(cbm) diff =   1.71709571E+00   1.66166043E+00  -5.54352794E-02
#    Nb          CH(vbm)          CH(cbm)             diff
      1  -7.24662999E-02  -6.84967803E-02   3.96951963E-03
      2  -1.44872642E-01  -1.37504825E-01   7.36781727E-03
      3  -2.38613689E-01  -2.54357740E-01  -1.57440513E-02
      4  -3.38441982E-01  -3.66141512E-01  -2.76995304E-02
      5  -4.43856768E-01  -4.51318921E-01  -7.46215267E-03
      6  -5.57535337E-01  -5.33831493E-01   2.37038438E-02
      7  -6.56922986E-01  -6.12323078E-01   4.45999087E-02
      8  -7.57681267E-01  -6.91838941E-01   6.58423258E-02
      9  -8.17262063E-01  -7.60524372E-01   5.67376907E-02
     10  -8.75694963E-01  -8.27646923E-01   4.80480397E-02
     11  -9.34965608E-01  -8.99723211E-01   3.52423971E-02
     12  -9.93925570E-01  -9.70217734E-01   2.37078365E-02
     13  -1.15976533E+00  -1.09869408E+00   6.10712508E-02
     14  -1.32864674E+00  -1.22815592E+00   1.00490813E-01
     15  -1.42512046E+00  -1.31868150E+00   1.06438955E-01
     16  -1.52397063E+00  -1.42110744E+00   1.02863193E-01
     17  -1.68713459E+00  -1.56148703E+00   1.25647561E-01
     18  -1.85451564E+00  -1.69945165E+00   1.55063990E-01
     19  -1.90890019E+00  -1.77267902E+00   1.36221172E-01
     20  -1.96801058E+00  -1.85989312E+00   1.08117455E-01
     21  -2.12862248E+00  -1.97922495E+00   1.49397537E-01
     22  -2.29714855E+00  -2.09459545E+00   2.02553100E-01
     23  -2.44494285E+00  -2.17828855E+00   2.66654303E-01
     24  -2.59509092E+00  -2.26876621E+00   3.26324715E-01
     25  -3.80725420E+00  -2.63587146E+00   1.17138274E+00
     26  -5.04146935E+00  -2.96917070E+00   2.07229865E+00
     27  -5.42687554E+00  -4.04749366E+00   1.37938187E+00
     28  -5.81564813E+00  -5.09936984E+00   7.16278296E-01
     29  -6.13378312E+00  -5.52718082E+00   6.06602306E-01
     30  -6.45375671E+00  -5.89854720E+00   5.55209511E-01
     31  -6.51078037E+00  -5.98847045E+00   5.22309926E-01
     32  -6.56694835E+00  -6.07083867E+00   4.96109676E-01
     33  -6.62018099E+00  -6.16304170E+00   4.57139285E-01
     34  -6.67345279E+00  -6.25536570E+00   4.18087091E-01
     35  -6.73852437E+00  -6.33905344E+00   3.99470936E-01
     36  -6.80318442E+00  -6.42485543E+00   3.78328995E-01
     37  -6.87036451E+00  -6.48036083E+00   3.90003681E-01
     38  -6.93842756E+00  -6.53926639E+00   3.99161170E-01
     39  -6.99065376E+00  -6.62104858E+00   3.69605185E-01
     40  -7.04266681E+00  -6.70516907E+00   3.37497744E-01
     41  -7.10006993E+00  -6.77603406E+00   3.24035873E-01
     42  -7.15706108E+00  -6.84984204E+00   3.07219039E-01
     43  -7.20944127E+00  -6.90738255E+00   3.02058718E-01
     44  -7.26319311E+00  -6.96226339E+00   3.00929722E-01
     45  -7.31809177E+00  -7.02823223E+00   2.89859542E-01
     46  -7.37499366E+00  -7.08655586E+00   2.88437806E-01
     47  -7.42241222E+00  -7.13904350E+00   2.83368725E-01
     48  -7.47002260E+00  -7.18805687E+00   2.81965736E-01
     49  -7.51815181E+00  -7.24281672E+00   2.75335093E-01
     50  -7.56676355E+00  -7.29558268E+00   2.71180869E-01
     51  -7.60409723E+00  -7.33038550E+00   2.73711732E-01
     52  -7.64114662E+00  -7.36663715E+00   2.74509471E-01
     53  -7.66519930E+00  -7.39809632E+00   2.67102978E-01
     54  -7.68902523E+00  -7.42888505E+00   2.60140182E-01
     55  -7.72108175E+00  -7.47864949E+00   2.42432267E-01
     56  -7.75279089E+00  -7.52828741E+00   2.24503482E-01
     57  -7.80400737E+00  -7.56142818E+00   2.42579191E-01
     58  -7.85558245E+00  -7.59644788E+00   2.59134571E-01
     59  -7.88622301E+00  -7.63189114E+00   2.54331868E-01
     60  -7.91593693E+00  -7.66867609E+00   2.47260847E-01
     61  -7.93659191E+00  -7.69499409E+00   2.41597818E-01
     62  -7.95713846E+00  -7.72104422E+00   2.36094240E-01
     63  -7.98052754E+00  -7.74169030E+00   2.38837246E-01
     64  -8.00351262E+00  -7.76143194E+00   2.42080675E-01
     65  -8.02268331E+00  -7.78421506E+00   2.38468253E-01
     66  -8.04277301E+00  -7.80660691E+00   2.36166102E-01
     67  -8.06202998E+00  -7.82110490E+00   2.40925078E-01
     68  -8.08124115E+00  -7.83495454E+00   2.46286611E-01
     69  -8.10817534E+00  -7.87231797E+00   2.35857372E-01
     70  -8.13604701E+00  -7.90888030E+00   2.27166704E-01
     71  -8.15719803E+00  -7.93252246E+00   2.24675567E-01
     72  -8.17765124E+00  -7.95603126E+00   2.21619971E-01
     73  -8.19897761E+00  -7.97727007E+00   2.21707537E-01
     74  -8.22079567E+00  -7.99856348E+00   2.22232191E-01
     75  -8.24980341E+00  -8.02840189E+00   2.21401515E-01
     76  -8.27918923E+00  -8.05808371E+00   2.21105519E-01
     77  -8.30144200E+00  -8.07753252E+00   2.23909478E-01
     78  -8.32380730E+00  -8.09644886E+00   2.27358436E-01
     79  -8.34609256E+00  -8.11817947E+00   2.27913086E-01
     80  -8.36843965E+00  -8.14066020E+00   2.27779446E-01
# k =   0.000000   0.500000   0.000000 spin = 1
# <ib|Sigma_CH[1..Nb]|ib> (eV), partial and symmetrized sum with up to Nb "inner" bands
# Reporting only VBM and CBM, use 'full_ch_conv_log 1' keyword for full report.
# 1/N extrap for CH(vbm) CH(cbm) diff =  -9.74466534E+00  -1.01634694E+01  -4.18804018E-01
# Error est. for CH(vbm) CH(cbm) diff =   1.65270397E+00   1.47768531E+00  -1.75018653E-01
#    Nb          CH(vbm)          CH(cbm)             diff
      1  -5.02885026E-02  -1.16050835E-01  -6.57623324E-02
      2  -1.00700215E-01  -2.32264670E-01  -1.31564455E-01
      3  -1.64167473E-01  -4.10047821E-01  -2.45880348E-01
      4  -2.28494188E-01  -5.87876578E-01  -3.59382390E-01
      5  -3.07864313E-01  -7.28833471E-01  -4.20969159E-01
      6  -3.87105380E-01  -8.61596143E-01  -4.74490763E-01
      7  -4.61221020E-01  -1.03250105E+00  -5.71280032E-01
      8  -5.35743794E-01  -1.19508547E+00  -6.59341672E-01
      9  -6.28181610E-01  -1.21640111E+00  -5.88219499E-01
     10  -7.20261676E-01  -1.23858395E+00  -5.18322278E-01
     11  -7.90155736E-01  -1.25243309E+00  -4.62277355E-01
     12  -8.55989813E-01  -1.26668150E+00  -4.10691684E-01
     13  -1.01328470E+00  -1.39655123E+00  -3.83266534E-01
     14  -1.18895640E+00  -1.52714027E+00  -3.38183872E-01
     15  -1.33703486E+00  -1.62164313E+00  -2.84608269E-01
     16  -1.48208893E+00  -1.71881931E+00  -2.36730383E-01
     17  -1.64789637E+00  -1.86788981E+00  -2.19993441E-01
     18  -1.82451651E+00  -2.00624623E+00  -1.81729722E-01
     19  -1.88123448E+00  -2.04145636E+00  -1.60221874E-01
     20  -1.94417913E+00  -2.07875863E+00  -1.34579501E-01
     21  -2.14895717E+00  -2.30612085E+00  -1.57163677E-01
     22  -2.41313499E+00  -2.53114282E+00  -1.18007827E-01
     23  -2.55923261E+00  -2.56365529E+00  -4.42268558E-03
     24  -2.71595960E+00  -2.59729311E+00   1.18666490E-01
     25  -3.74754116E+00  -2.97330403E+00   7.74237122E-01
     26  -4.84876225E+00  -3.28855463E+00   1.56020762E+00
     27  -5.15102857E+00  -4.36071860E+00   7.90309962E-01
     28  -5.48799584E+00  -5.41425508E+00   7.37407563E-02
     29  -5.67999516E+00  -6.24272695E+00  -5.62731785E-01
     30  -5.88849694E+00  -7.01225899E+00  -1.12376206E+00
     31  -5.93094401E+00  -7.06356417E+00  -1.13262016E+00
     32  -5.97128527E+00  -7.11562150E+00  -1.14433623E+00
     33  -6.01462059E+00  -7.17632015E+00  -1.16169956E+00
     34  -6.05887915E+00  -7.23605302E+00  -1.17717386E+00
     35  -6.14721894E+00  -7.33070128E+00  -1.18348233E+00
     36  -6.23635188E+00  -7.42117997E+00  -1.18482809E+00
     37  -6.32660285E+00  -7.43804047E+00  -1.11143762E+00
     38  -6.42132363E+00  -7.45531966E+00  -1.03399603E+00
     39  -6.50117353E+00  -7.50333420E+00  -1.00216067E+00
     40  -6.57641818E+00  -7.55806327E+00  -9.81645086E-01
     41  -6.65701412E+00  -7.62434663E+00  -9.67332508E-01
     42  -6.73893572E+00  -7.69891178E+00  -9.59976056E-01
     43  -6.78802137E+00  -7.71601095E+00  -9.27989575E-01
     44  -6.84195354E+00  -7.73488925E+00  -8.92935714E-01
     45  -6.89210872E+00  -7.79584067E+00  -9.03731955E-01
     46  -6.95022572E+00  -7.84827358E+00  -8.98047863E-01
     47  -6.99891425E+00  -7.86580186E+00  -8.66887610E-01
     48  -7.05584918E+00  -7.87989084E+00  -8.24041668E-01
     49  -7.11357098E+00  -7.95357184E+00  -8.40000858E-01
     50  -7.17977211E+00  -8.02613041E+00  -8.46358296E-01
     51  -7.22130357E+00  -8.03939150E+00  -8.18087932E-01
     52  -7.26093205E+00  -8.05330080E+00  -7.92368752E-01
     53  -7.29806546E+00  -8.06296294E+00  -7.64897480E-01
     54  -7.33448326E+00  -8.07268420E+00  -7.38200941E-01
     55  -7.37899318E+00  -8.13449671E+00  -7.55503527E-01
     56  -7.42113793E+00  -8.19791631E+00  -7.76778385E-01
     57  -7.48167634E+00  -8.22251016E+00  -7.40833816E-01
     58  -7.54259228E+00  -8.24716217E+00  -7.04569887E-01
     59  -7.57918767E+00  -8.27678964E+00  -6.97601975E-01
     60  -7.61330002E+00  -8.30938777E+00  -6.96087746E-01
     61  -7.63940122E+00  -8.32837851E+00  -6.88977288E-01
     62  -7.66511890E+00  -8.34692098E+00  -6.81802082E-01
     63  -7.68977684E+00  -8.36120018E+00  -6.71423338E-01
     64  -7.71459467E+00  -8.37365103E+00  -6.59056361E-01
     65  -7.73413845E+00  -8.38106959E+00  -6.46931145E-01
     66  -7.75623718E+00  -8.39021009E+00  -6.33972906E-01
     67  -7.77781520E+00  -8.40166056E+00  -6.23845355E-01
     68  -7.79852415E+00  -8.41300495E+00  -6.14480799E-01
     69  -7.83075936E+00  -8.44975235E+00  -6.18992985E-01
     70  -7.86487935E+00  -8.48482304E+00  -6.19943692E-01
     71  -7.88741483E+00  -8.50225054E+00  -6.14835705E-01
     72  -7.90832760E+00  -8.52159679E+00  -6.13269188E-01
     73  -7.92866412E+00  -8.53190103E+00  -6.03236913E-01
     74  -7.95005214E+00  -8.54210810E+00  -5.92055957E-01
     75  -7.98075614E+00  -8.58587442E+00  -6.05118285E-01
     76  -8.01201440E+00  -8.63133414E+00  -6.19319737E-01
     77  -8.03011987E+00  -8.64114313E+00  -6.11023257E-01
     78  -8.04987536E+00  -8.65145766E+00  -6.01582295E-01
     79  -8.07085547E+00  -8.66864866E+00  -5.97793191E-01
     80  -8.09196138E+00  -8.68578405E+00  -5.93822671E-01
# k =   0.000000   0.750000   0.000000 spin = 1
# <ib|Sigma_CH[1..Nb]|ib> (eV), partial and symmetrized sum with up to Nb "inner" bands
# Reporting only VBM and CBM, use 'full_ch_conv_log 1' keyword for full report.
# 1/N extrap for CH(vbm) CH(cbm) diff =  -1.00855337E+01  -9.80232236E+00   2.83211376E-01
# Error est. for CH(vbm) CH(cbm) diff =   1.71709741E+00   1.66166159E+00  -5.54358223E-02
#    Nb          CH(vbm)          CH(cbm)             diff
      1  -7.24593555E-02  -6.85598866E-02   3.89946895E-03
      2  -1.44873238E-01  -1.37504359E-01   7.36887864E-03
      3  -2.38624629E-01  -2.54364013E-01  -1.57393837E-02
      4  -3.38442713E-01  -3.66140925E-01  -2.76982117E-02
      5  -4.43900342E-01  -4.51484771E-01  -7.58442867E-03
      6  -5.57536303E-01  -5.33830755E-01   2.37055482E-02
      7  -6.56953394E-01  -6.12426524E-01   4.45268709E-02
      8  -7.57682306E-01  -6.91838164E-01   6.58441418E-02
      9  -8.17226894E-01  -7.60668378E-01   5.65585158E-02
     10  -8.75695021E-01  -8.27647004E-01   4.80480164E-02
     11  -9.34902635E-01  -8.99706463E-01   3.51961725E-02
     12  -9.93925255E-01  -9.70217260E-01   2.37079952E-02
     13  -1.15983963E+00  -1.09882246E+00   6.10171745E-02
     14  -1.32864582E+00  -1.22815711E+00   1.00488715E-01
     15  -1.42519724E+00  -1.31811716E+00   1.07080080E-01
     16  -1.52396949E+00  -1.42110861E+00   1.02860880E-01
     17  -1.68676196E+00  -1.56088337E+00   1.25878593E-01
     18  -1.85451467E+00  -1.69945287E+00   1.55061799E-01
     19  -1.90919994E+00  -1.77388467E+00   1.35315275E-01
     20  -1.96800950E+00  -1.85989430E+00   1.08115208E-01
     21  -2.12837268E+00  -1.97965186E+00   1.48720824E-01
     22  -2.29714730E+00  -2.09459649E+00   2.02550810E-01
     23  -2.44416195E+00  -2.17940226E+00   2.64759688E-01
     24  -2.59508946E+00  -2.26876730E+00   3.26322162E-01
     25  -3.80733355E+00  -2.63375750E+00   1.17357605E+00
     26  -5.04146790E+00  -2.96917275E+00   2.07229514E+00
     27  -5.43468945E+00  -4.04385464E+00   1.39083481E+00
     28  -5.81564572E+00  -5.09937189E+00   7.16273838E-01
     29  -6.13419154E+00  -5.52719190E+00   6.06999634E-01
     30  -6.45375422E+00  -5.89854911E+00   5.55205102E-01
     31  -6.51066635E+00  -5.98927178E+00   5.21394565E-01
     32  -6.56694579E+00  -6.07084060E+00   4.96105192E-01
     33  -6.62015758E+00  -6.16328054E+00   4.56877046E-01
     34  -6.67345006E+00  -6.25536752E+00   4.18082534E-01
     35  -6.73847243E+00  -6.33925790E+00   3.99214534E-01
     36  -6.80318133E+00  -6.42485643E+00   3.78324904E-01
     37  -6.87039964E+00  -6.48031927E+00   3.90080371E-01
     38  -6.93842444E+00  -6.53926729E+00   3.99157149E-01
     39  -6.99039652E+00  -6.62162413E+00   3.68772390E-01
     40  -7.04266379E+00  -6.70516960E+00   3.37494189E-01
     41  -7.10009458E+00  -6.77621226E+00   3.23882320E-01
     42  -7.15705790E+00  -6.84984197E+00   3.07215932E-01
     43  -7.20913294E+00  -6.90714605E+00   3.01986897E-01
     44  -7.26318979E+00  -6.96226393E+00   3.00925865E-01
     45  -7.31792533E+00  -7.02884177E+00   2.89083550E-01
     46  -7.37498986E+00  -7.08655634E+00   2.88433529E-01
     47  -7.42239886E+00  -7.13911297E+00   2.83285886E-01
     48  -7.47001938E+00  -7.18805760E+00   2.81961778E-01
     49  -7.51799569E+00  -7.24272261E+00   2.75273084E-01
     50  -7.56676022E+00  -7.29558359E+00   2.71176631E-01
     51  -7.60424930E+00  -7.33032554E+00   2.73923757E-01
     52  -7.64114316E+00  -7.36663797E+00   2.74505195E-01
     53  -7.66503854E+00  -7.39801125E+00   2.67027291E-01
     54  -7.68902156E+00  -7.42888590E+00   2.60135662E-01
     55  -7.72107724E+00  -7.47868310E+00   2.42394142E-01
     56  -7.75278711E+00  -7.52828827E+00   2.24498836E-01
     57  -7.80401485E+00  -7.56274658E+00   2.41268271E-01
     58  -7.85557903E+00  -7.59644932E+00   2.59129710E-01
     59  -7.88619107E+00  -7.63198448E+00   2.54206585E-01
     60  -7.91593341E+00  -7.66867759E+00   2.47255822E-01
     61  -7.93659822E+00  -7.69491306E+00   2.41685156E-01
     62  -7.95713458E+00  -7.72104538E+00   2.36089197E-01
     63  -7.98047314E+00  -7.74168389E+00   2.38789246E-01
     64  -8.00350866E+00  -7.76143320E+00   2.42075454E-01
     65  -8.02270156E+00  -7.78412367E+00   2.38577894E-01
     66  -8.04276904E+00  -7.80660818E+00   2.36160858E-01
     67  -8.06210732E+00  -7.82095789E+00   2.41149436E-01
     68  -8.08123721E+00  -7.83495567E+00   2.46281548E-01
