# htransform single-particle bands, MoS2 12x12 (640 centroids)
# valence 22-25 from window (20,28) [hts_val.in]; conduction 26-31 from window (26,34) [hts_cond2.in, a_band=28]
# (windows chosen so no boundary cuts a Kramers pair and every plotted band is f-transform-conditioned; see gap_scan.py)
# energies in eV relative to VBM (band 25, -0.381724 Ry)
# nodes: 0:Γ 15:M 23:K 39:Γ
# iQ  s_path  kx  ky  kz  E_b22..E_b31 (eV)
   0  0.000000  0.000000  0.000000  0.000000 -1.505494 -1.505494 -0.192478 -0.192478  2.612127  2.612127  2.687886  2.687886  2.861089  2.861089
   1  0.254116  0.000000  0.033333  0.000000 -1.404065 -1.404063 -0.198581 -0.198581  2.603315  2.603315  2.696383  2.696384  2.817976  2.817979
   2  0.508233  0.000000  0.066667  0.000000 -1.269036 -1.269035 -0.220233 -0.220232  2.549272  2.549272  2.683237  2.683241  2.766399  2.766401
   3  0.762349  0.000000  0.100000  0.000000 -1.299288 -1.299288 -0.266264 -0.266264  2.478220  2.478221  2.528399  2.528400  2.705898  2.705901
   4  1.016465  0.000000  0.133333  0.000000 -1.289820 -1.289819 -0.347224 -0.347224  2.326681  2.326683  2.477405  2.477405  2.606504  2.606505
   5  1.270581  0.000000  0.166667  0.000000 -1.234860 -1.234860 -0.469761 -0.469761  2.180621  2.180623  2.483157  2.483160  2.523217  2.523218
   6  1.524698  0.000000  0.200000  0.000000 -1.233002 -1.232994 -0.628375 -0.628375  2.086306  2.086309  2.394169  2.394172  2.605314  2.605315
   7  1.778814  0.000000  0.233333  0.000000 -1.408867 -1.408865 -0.800604 -0.800603  2.048776  2.048778  2.304707  2.304710  2.757367  2.757368
   8  2.032930  0.000000  0.266667  0.000000 -1.609660 -1.609659 -0.956114 -0.956113  2.061765  2.061767  2.231547  2.231550  2.946059  2.946060
   9  2.287046  0.000000  0.300000  0.000000 -1.732663 -1.732663 -1.063485 -1.063484  2.110170  2.110175  2.191252  2.191257  3.144074  3.144075
  10  2.541163  0.000000  0.333333  0.000000 -1.401467 -1.401464 -1.096285 -1.096282  2.137150  2.137152  2.239026  2.239029  3.329999  3.330000
  11  2.795279  0.000000  0.366667  0.000000 -1.154582 -1.154573 -1.042437 -1.042429  2.154802  2.154802  2.349566  2.349566  3.489195  3.489195
  12  3.049395  0.000000  0.400000  0.000000 -1.129206 -1.129201 -0.955245 -0.955240  2.186578  2.186578  2.473410  2.473410  3.612680  3.612681
  13  3.303512  0.000000  0.433333  0.000000 -1.150807 -1.150806 -0.855618 -0.855616  2.219487  2.219487  2.590468  2.590468  3.696952  3.696953
  14  3.557628  0.000000  0.466667  0.000000 -1.102489 -1.102489 -0.779757 -0.779756  2.241926  2.241926  2.678132  2.678132  3.744466  3.744466
  15  3.811744  0.000000  0.500000  0.000000 -1.060216 -1.060216 -0.751999 -0.751999  2.249571  2.249571  2.711377  2.711377  3.759791  3.759791
  16  4.086805  0.041662  0.479162  0.000000 -1.213927 -1.143962 -0.679890 -0.596532  2.243345  2.271774  2.698149  2.755521  3.787176  3.810274
  17  4.361867  0.083325  0.458325  0.000000 -1.581355 -1.508776 -0.558697 -0.461048  2.227496  2.275882  2.730172  2.833896  3.801346  3.823837
  18  4.636928  0.124988  0.437488  0.000000 -2.135034 -2.124666 -0.498484 -0.395718  2.179868  2.231464  2.818425  2.946198  3.557561  3.570993
  19  4.911990  0.166650  0.416650  0.000000 -2.124049 -2.117545 -0.443813 -0.336130  2.093616  2.135682  2.957068  3.092533  3.304714  3.326959
  20  5.187051  0.208312  0.395813  0.000000 -1.856969 -1.599084 -0.561296 -0.359851  1.979320  2.007183  3.078259  3.088530  3.164968  3.264052
  21  5.462112  0.249975  0.374975  0.000000 -2.452529 -2.449827 -0.265968 -0.145477  1.868271  1.886239  2.944080  2.968676  3.279344  3.408762
  22  5.737174  0.291637  0.354137  0.000000 -2.459203 -2.440340 -0.171303 -0.042704  1.761301  1.767228  2.865662  2.894580  3.400953  3.530913
  23  6.012235  0.333300  0.333300  0.000000 -2.394366 -2.372802 -0.132580 -0.000000  1.700069  1.703654  2.844501  2.874754  3.456050  3.586159
  24  6.287296  0.312469  0.312469  0.000000 -2.112042 -2.086260 -0.184988 -0.057183  1.744310  1.744649  2.861557  2.890257  3.405369  3.534738
  25  6.562358  0.291637  0.291637  0.000000 -1.856110 -1.846414 -0.319106 -0.201980  1.853013  1.861855  2.899312  2.922020  3.258642  3.382969
  26  6.837419  0.270806  0.270806  0.000000 -1.830976 -1.777932 -0.615799 -0.467603  1.990792  2.006254  2.935231  2.939298  3.052502  3.157183
  27  7.112480  0.249975  0.249975  0.000000 -1.860472 -1.850315 -0.626603 -0.526077  2.092137  2.099437  2.806370  2.907799  2.945669  2.957421
  28  7.387541  0.229144  0.229144  0.000000 -1.759727 -1.743582 -0.732161 -0.639077  2.061235  2.089463  2.654008  2.703470  2.900887  2.909714
  29  7.662603  0.208312  0.208312  0.000000 -1.560182 -1.538854 -0.773765 -0.690604  1.931089  1.990745  2.561172  2.568765  2.808173  2.834595
  30  7.937664  0.187481  0.187481  0.000000 -1.376439 -1.348362 -0.827237 -0.751779  1.822669  1.889688  2.473338  2.482862  2.695701  2.736639
  31  8.212725  0.166650  0.166650  0.000000 -1.245738 -1.211995 -0.926477 -0.856788  1.790983  1.851342  2.401053  2.415343  2.581065  2.633298
  32  8.487786  0.145819  0.145819  0.000000 -1.139647 -1.102850 -0.871455 -0.822630  1.839920  1.886017  2.361596  2.374439  2.479370  2.540107
  33  8.762848  0.124988  0.124988  0.000000 -1.050801 -1.014949 -0.708007 -0.679205  1.949823  1.976314  2.367685  2.371951  2.411096  2.475389
  34  9.037909  0.104156  0.104156  0.000000 -0.887754 -0.862949 -0.554246 -0.547166  2.097045  2.103116  2.358342  2.395491  2.447813  2.481226
  35  9.312970  0.083325  0.083325  0.000000 -1.123511 -1.096425 -0.389189 -0.383979  2.260786  2.270305  2.372091  2.420640  2.547540  2.573239
  36  9.588031  0.062494  0.062494  0.000000 -1.249503 -1.228880 -0.289835 -0.287009  2.429738  2.432297  2.465230  2.491407  2.661184  2.684101
  37  9.863093  0.041662  0.041662  0.000000 -1.343278 -1.334064 -0.233208 -0.231621  2.519507  2.540089  2.651859  2.652086  2.755436  2.768985
  38 10.138154  0.020831  0.020831  0.000000 -1.460590 -1.459342 -0.202848 -0.202518  2.595964  2.604246  2.694165  2.700264  2.804250  2.811633
  39 10.413215  0.000000  0.000000  0.000000 -1.505494 -1.505494 -0.192478 -0.192478  2.612127  2.612127  2.687886  2.687886  2.861089  2.861089
