# BSE absorption — eigenvector route
# polarization: b2
# V_cell = 270.107000 bohr^3,  N_k = 64
# eta = 0.1500 eV,  n_spin = 1,  n_spinor = 2
# n_eigenvectors = 100
 # Column 1: omega
 # Column 2: eps2(omega)
 # Column 3: eps1(omega)
 # Column 4: JDOS(omega)
     0.000000000     0.130563073     1.000000000     0.608246388
     0.010016694     0.131377340     1.000000000     0.612134384
     0.020033389     0.132199286     1.000000000     0.616060913
     0.030050083     0.133029007     1.000000000     0.620026500
     0.040066778     0.133866604     1.000000000     0.624031676
     0.050083472     0.134712176     1.000000000     0.628076985
     0.060100167     0.135565825     1.000000000     0.632162976
     0.070116861     0.136427655     1.000000000     0.636290210
     0.080133556     0.137297771     1.000000000     0.640459260
     0.090150250     0.138176281     1.000000000     0.644670705
     0.100166945     0.139063293     1.000000000     0.648925137
     0.110183639     0.139958918     1.000000000     0.653223158
     0.120200334     0.140863268     1.000000000     0.657565380
     0.130217028     0.141776458     1.000000000     0.661952428
     0.140233723     0.142698603     1.000000000     0.666384935
     0.150250417     0.143629822     1.000000000     0.670863549
     0.160267112     0.144570235     1.000000000     0.675388927
     0.170283806     0.145519964     1.000000000     0.679961741
     0.180300501     0.146479132     1.000000000     0.684582672
     0.190317195     0.147447867     1.000000000     0.689252415
     0.200333890     0.148426296     1.000000000     0.693971679
     0.210350584     0.149414549     1.000000000     0.698741185
     0.220367279     0.150412760     1.000000000     0.703561667
     0.230383973     0.151421063     1.000000000     0.708433874
     0.240400668     0.152439596     1.000000000     0.713358568
     0.250417362     0.153468498     1.000000000     0.718336526
     0.260434057     0.154507911     1.000000000     0.723368539
     0.270450751     0.155557979     1.000000000     0.728455415
     0.280467446     0.156618850     1.000000000     0.733597975
     0.290484140     0.157690672     1.000000000     0.738797057
     0.300500835     0.158773599     1.000000000     0.744053515
     0.310517529     0.159867784     1.000000000     0.749368219
     0.320534224     0.160973385     1.000000000     0.754742058
     0.330550918     0.162090563     1.000000000     0.760175936
     0.340567613     0.163219480     1.000000000     0.765670776
     0.350584307     0.164360302     1.000000000     0.771227517
     0.360601002     0.165513199     1.000000000     0.776847121
     0.370617696     0.166678342     1.000000000     0.782530565
     0.380634391     0.167855906     1.000000000     0.788278847
     0.390651085     0.169046070     1.000000000     0.794092986
     0.400667780     0.170249015     1.000000000     0.799974019
     0.410684474     0.171464925     1.000000000     0.805923006
     0.420701169     0.172693989     1.000000000     0.811941029
     0.430717863     0.173936398     1.000000000     0.818029191
     0.440734558     0.175192348     1.000000000     0.824188617
     0.450751252     0.176462036     1.000000000     0.830420456
     0.460767947     0.177745665     1.000000000     0.836725881
     0.470784641     0.179043442     1.000000000     0.843106090
     0.480801336     0.180355576     1.000000000     0.849562303
     0.490818030     0.181682280     1.000000000     0.856095770
     0.500834725     0.183023774     1.000000000     0.862707765
     0.510851419     0.184380278     1.000000000     0.869399587
     0.520868114     0.185752019     1.000000000     0.876172566
     0.530884808     0.187139227     1.000000000     0.883028060
     0.540901503     0.188542138     1.000000000     0.889967454
     0.550918197     0.189960990     1.000000000     0.896992165
     0.560934891     0.191396028     1.000000000     0.904103640
     0.570951586     0.192847500     1.000000000     0.911303357
     0.580968280     0.194315660     1.000000000     0.918592827
     0.590984975     0.195800766     1.000000000     0.925973594
     0.601001669     0.197303081     1.000000000     0.933447237
     0.611018364     0.198822875     1.000000000     0.941015369
     0.621035058     0.200360421     1.000000000     0.948679639
     0.631051753     0.201915999     1.000000000     0.956441734
     0.641068447     0.203489893     1.000000000     0.964303378
     0.651085142     0.205082394     1.000000000     0.972266334
     0.661101836     0.206693799     1.000000000     0.980332407
     0.671118531     0.208324410     1.000000000     0.988503441
     0.681135225     0.209974535     1.000000000     0.996781324
     0.691151920     0.211644489     1.000000000     1.005167987
     0.701168614     0.213334594     1.000000000     1.013665406
     0.711185309     0.215045177     1.000000000     1.022275603
     0.721202003     0.216776572     1.000000000     1.031000647
     0.731218698     0.218529122     1.000000000     1.039842659
     0.741235392     0.220303173     1.000000000     1.048803805
     0.751252087     0.222099083     1.000000000     1.057886308
     0.761268781     0.223917214     1.000000000     1.067092441
     0.771285476     0.225757937     1.000000000     1.076424533
     0.781302170     0.227621630     1.000000000     1.085884969
     0.791318865     0.229508680     1.000000000     1.095476192
     0.801335559     0.231419483     1.000000000     1.105200707
     0.811352254     0.233354440     1.000000000     1.115061078
     0.821368948     0.235313964     1.000000000     1.125059934
     0.831385643     0.237298476     1.000000000     1.135199968
     0.841402337     0.239308405     1.000000000     1.145483944
     0.851419032     0.241344192     1.000000000     1.155914692
     0.861435726     0.243406283     1.000000000     1.166495114
     0.871452421     0.245495139     1.000000000     1.177228190
     0.881469115     0.247611228     1.000000000     1.188116971
     0.891485810     0.249755029     1.000000000     1.199164590
     0.901502504     0.251927032     1.000000000     1.210374260
     0.911519199     0.254127738     1.000000000     1.221749279
     0.921535893     0.256357658     1.000000000     1.233293030
     0.931552588     0.258617316     1.000000000     1.245008986
     0.941569282     0.260907248     1.000000000     1.256900712
     0.951585977     0.263228001     1.000000000     1.268971869
     0.961602671     0.265580135     1.000000000     1.281226215
     0.971619366     0.267964224     1.000000000     1.293667611
     0.981636060     0.270380853     1.000000000     1.306300021
     0.991652755     0.272830622     1.000000000     1.319127520
     1.001669449     0.275314146     1.000000000     1.332154292
     1.011686144     0.277832052     1.000000000     1.345384641
     1.021702838     0.280384983     1.000000000     1.358822987
     1.031719533     0.282973598     1.000000000     1.372473875
     1.041736227     0.285598570     1.000000000     1.386341980
     1.051752922     0.288260590     1.000000000     1.400432107
     1.061769616     0.290960364     1.000000000     1.414749201
     1.071786311     0.293698615     1.000000000     1.429298346
     1.081803005     0.296476085     1.000000000     1.444084777
     1.091819699     0.299293534     1.000000000     1.459113878
     1.101836394     0.302151738     1.000000000     1.474391193
     1.111853088     0.305051495     1.000000000     1.489922429
     1.121869783     0.307993622     1.000000000     1.505713462
     1.131886477     0.310978955     1.000000000     1.521770343
     1.141903172     0.314008354     1.000000000     1.538099308
     1.151919866     0.317082697     1.000000000     1.554706780
     1.161936561     0.320202886     1.000000000     1.571599377
     1.171953255     0.323369846     1.000000000     1.588783922
     1.181969950     0.326584526     1.000000000     1.606267449
     1.191986644     0.329847898     1.000000000     1.624057211
     1.202003339     0.333160961     1.000000000     1.642160687
     1.212020033     0.336524737     1.000000000     1.660585595
     1.222036728     0.339940279     1.000000000     1.679339895
     1.232053422     0.343408663     1.000000000     1.698431805
     1.242070117     0.346930996     1.000000000     1.717869806
     1.252086811     0.350508415     1.000000000     1.737662658
     1.262103506     0.354142086     1.000000000     1.757819403
     1.272120200     0.357833206     1.000000000     1.778349385
     1.282136895     0.361583006     1.000000000     1.799262258
     1.292153589     0.365392749     1.000000000     1.820567996
     1.302170284     0.369263732     1.000000000     1.842276914
     1.312186978     0.373197289     1.000000000     1.864399673
     1.322203673     0.377194791     1.000000000     1.886947302
     1.332220367     0.381257646     1.000000000     1.909931211
     1.342237062     0.385387301     1.000000000     1.933363203
     1.352253756     0.389585245     1.000000000     1.957255499
     1.362270451     0.393853010     1.000000000     1.981620748
     1.372287145     0.398192168     1.000000000     2.006472051
     1.382303840     0.402604339     1.000000000     2.031822979
     1.392320534     0.407091188     1.000000000     2.057687594
     1.402337229     0.411654431     1.000000000     2.084080469
     1.412353923     0.416295829     1.000000000     2.111016716
     1.422370618     0.421017200     1.000000000     2.138512004
     1.432387312     0.425820413     1.000000000     2.166582589
     1.442404007     0.430707391     1.000000000     2.195245340
     1.452420701     0.435680118     1.000000000     2.224517765
     1.462437396     0.440740635     1.000000000     2.254418046
     1.472454090     0.445891045     1.000000000     2.284965066
     1.482470785     0.451133517     1.000000000     2.316178444
     1.492487479     0.456470283     1.000000000     2.348078573
     1.502504174     0.461903648     1.000000000     2.380686652
     1.512520868     0.467435984     1.000000000     2.414024732
     1.522537563     0.473069742     1.000000000     2.448115752
     1.532554257     0.478807445     1.000000000     2.482983588
     1.542570952     0.484651701     1.000000000     2.518653096
     1.552587646     0.490605196     1.000000000     2.555150167
     1.562604341     0.496670706     1.000000000     2.592501773
     1.572621035     0.502851096     1.000000000     2.630736029
     1.582637730     0.509149323     1.000000000     2.669882250
     1.592654424     0.515568441     1.000000000     2.709971014
     1.602671119     0.522111605     1.000000000     2.751034231
     1.612687813     0.528782076     1.000000000     2.793105211
     1.622704508     0.535583222     1.000000000     2.836218742
     1.632721202     0.542518526     1.000000000     2.880411174
     1.642737896     0.549591587     1.000000000     2.925720498
     1.652754591     0.556806131     1.000000000     2.972186446
     1.662771285     0.564166008     1.000000000     3.019850581
     1.672787980     0.571675203     1.000000000     3.068756408
     1.682804674     0.579337840     1.000000000     3.118949482
     1.692821369     0.587158190     1.000000000     3.170477530
     1.702838063     0.595140672     1.000000000     3.223390574
     1.712854758     0.603289866     1.000000000     3.277741072
     1.722871452     0.611610514     1.000000000     3.333584063
     1.732888147     0.620107532     1.000000000     3.390977321
     1.742904841     0.628786014     1.000000000     3.449981527
     1.752921536     0.637651243     1.000000000     3.510660445
     1.762938230     0.646708697     1.000000000     3.573081118
     1.772954925     0.655964059     1.000000000     3.637314075
     1.782971619     0.665423227     1.000000000     3.703433555
     1.792988314     0.675092322     1.000000000     3.771517745
     1.803005008     0.684977700     1.000000000     3.841649043
     1.813021703     0.695085963     1.000000000     3.913914335
     1.823038397     0.705423969     1.000000000     3.988405294
     1.833055092     0.715998845     1.000000000     4.065218710
     1.843071786     0.726818002     1.000000000     4.144456836
     1.853088481     0.737889146     1.000000000     4.226227775
     1.863105175     0.749220291     1.000000000     4.310645882
     1.873121870     0.760819780     1.000000000     4.397832219
     1.883138564     0.772696295     1.000000000     4.487915030
     1.893155259     0.784858878     1.000000000     4.581030274
     1.903171953     0.797316948     1.000000000     4.677322185
     1.913188648     0.810080318     1.000000000     4.776943899
     1.923205342     0.823159220     1.000000000     4.880058126
     1.933222037     0.836564321     1.000000000     4.986837882
     1.943238731     0.850306753     1.000000000     5.097467293
     1.953255426     0.864398128     1.000000000     5.212142465
     1.963272120     0.878850573     1.000000000     5.331072443
     1.973288815     0.893676752     1.000000000     5.454480252
     1.983305509     0.908889896     1.000000000     5.582604037
     1.993322204     0.924503835     1.000000000     5.715698321
     2.003338898     0.940533032     1.000000000     5.854035368
     2.013355593     0.956992617     1.000000000     5.997906699
     2.023372287     0.973898422     1.000000000     6.147624736
     2.033388982     0.991267028     1.000000000     6.303524626
     2.043405676     1.009115800     1.000000000     6.465966241
     2.053422371     1.027462939     1.000000000     6.635336377
     2.063439065     1.046327527     1.000000000     6.812051183
     2.073455760     1.065729581     1.000000000     6.996558836
     2.083472454     1.085690109     1.000000000     7.189342489
     2.093489149     1.106231166     1.000000000     7.390923526
     2.103505843     1.127375927     1.000000000     7.601865157
     2.113522538     1.149148746     1.000000000     7.822776378
     2.123539232     1.171575235     1.000000000     8.054316346
     2.133555927     1.194682344     1.000000000     8.297199206
     2.143572621     1.218498442     1.000000000     8.552199396
     2.153589316     1.243053413     1.000000000     8.820157508
     2.163606010     1.268378752     1.000000000     9.101986703
     2.173622705     1.294507671     1.000000000     9.398679758
     2.183639399     1.321475214     1.000000000     9.711316751
     2.193656093     1.349318381     1.000000000    10.041073426
     2.203672788     1.378076260     1.000000000    10.389230230
     2.213689482     1.407790171     1.000000000    10.757182009
     2.223706177     1.438503822     1.000000000    11.146448305
     2.233722871     1.470263475     1.000000000    11.558684131
     2.243739566     1.503118131     1.000000000    11.995691037
     2.253756260     1.537119727     1.000000000    12.459428166
     2.263772955     1.572323347     1.000000000    12.952022835
     2.273789649     1.608787458     1.000000000    13.475779997
     2.283806344     1.646574161     1.000000000    14.033189654
     2.293823038     1.685749465     1.000000000    14.626930940
     2.303839733     1.726383587     1.000000000    15.259871165
     2.313856427     1.768551280     1.000000000    15.935057529
     2.323873122     1.812332181     1.000000000    16.655698576
     2.333889816     1.857811209     1.000000000    17.425131679
     2.343906511     1.905078979     1.000000000    18.246772082
     2.353923205     1.954232273     1.000000000    19.124038314
     2.363939900     2.005374544     1.000000000    20.060248368
     2.373956594     2.058616470     1.000000000    21.058481294
     2.383973289     2.114076569     1.000000000    22.121400183
     2.393989983     2.171881863     1.000000000    23.251035672
     2.404006678     2.232168616     1.000000000    24.448534698
     2.414023372     2.295083144     1.000000000    25.713887907
     2.424040067     2.360782702     1.000000000    27.045660891
     2.434056761     2.429436468     1.000000000    28.440768181
     2.444073456     2.501226623     1.000000000    29.894341926
     2.454090150     2.576349548     1.000000000    31.399754635
     2.464106845     2.655017138     1.000000000    32.948851358
     2.474123539     2.737458265     1.000000000    34.532426035
     2.484140234     2.823920385     1.000000000    36.140938653
     2.494156928     2.914671328     1.000000000    37.765420293
     2.504173623     3.010001271     1.000000000    39.398465594
     2.514190317     3.110224929     1.000000000    41.035182677
     2.524207012     3.215683977     1.000000000    42.673970650
     2.534223706     3.326749744     1.000000000    44.317024873
     2.544240401     3.443826186     1.000000000    45.970518781
     2.554257095     3.567353184     1.000000000    47.644459857
     2.564273790     3.697810203     1.000000000    49.352249395
     2.574290484     3.835720319     1.000000000    51.109982240
     2.584307179     3.981654684     1.000000000    52.935507509
     2.594323873     4.136237431     1.000000000    54.847249348
     2.604340568     4.300151075     1.000000000    56.862777198
     2.614357262     4.474142414     1.000000000    58.997130172
     2.624373957     4.659028968     1.000000000    61.260938989
     2.634390651     4.855705939     1.000000000    63.658438937
     2.644407346     5.065153683     1.000000000    66.185514189
     2.654424040     5.288445647     1.000000000    68.827949325
     2.664440735     5.526756649     1.000000000    71.560086848
     2.674457429     5.781371353     1.000000000    74.344099441
     2.684474124     6.053692669     1.000000000    77.130078069
     2.694490818     6.345249680     1.000000000    79.857102920
     2.704507513     6.657704532     1.000000000    82.455397054
     2.714524207     6.992857481     1.000000000    84.849563827
     2.724540902     7.352648979     1.000000000    86.962788899
     2.734557596     7.739157267     1.000000000    88.721759176
     2.744574290     8.154589454     1.000000000    90.061925809
     2.754590985     8.601263395     1.000000000    90.932628692
     2.764607679     9.081576941     1.000000000    91.301526937
     2.774624374     9.597960278     1.000000000    91.157774752
     2.784641068    10.152806168     1.000000000    90.513473920
     2.794657763    10.748372138     1.000000000    89.403128906
     2.804674457    11.386648185     1.000000000    87.881102459
     2.814691152    12.069183834     1.000000000    86.017365042
     2.824707846    12.796869874     1.000000000    83.892085787
     2.834724541    13.569673495     1.000000000    81.589765935
     2.844741235    14.386331586     1.000000000    79.193629279
     2.854757930    15.244016174     1.000000000    76.780856398
     2.864774624    16.137998216     1.000000000    74.419020539
     2.874791319    17.061350129     1.000000000    72.163821784
     2.884808013    18.004740465     1.000000000    70.057992597
     2.894824708    18.956381623     1.000000000    68.131107984
     2.904841402    19.902187862     1.000000000    66.399989818
     2.914858097    20.826182251     1.000000000    64.869432584
     2.924874791    21.711157624     1.000000000    63.533069119
     2.934891486    22.539554385     1.000000000    62.374310749
     2.944908180    23.294478941     1.000000000    61.367410651
     2.954924875    23.960763185     1.000000000    60.478789308
     2.964941569    24.525965115     1.000000000    59.668803085
     2.974958264    24.981230382     1.000000000    58.894109076
     2.984974958    25.321961905     1.000000000    58.110667529
     2.994991653    25.548264161     1.000000000    57.277236241
     3.005008347    25.665131899     1.000000000    56.358992912
     3.015025042    25.682345171     1.000000000    55.330748526
     3.025041736    25.614031721     1.000000000    54.179172332
