# BSE absorption — eigenvector route
# polarization: b1
# V_cell = 270.107000 bohr^3,  N_k = 64
# eta = 0.0500 eV,  n_spin = 1,  n_spinor = 2
# n_eigenvectors = 200
 # Column 1: omega
 # Column 2: eps2(omega)
 # Column 3: eps1(omega)
 # Column 4: JDOS(omega)
     0.000000000     0.083705134     1.000000000     0.203172255
     0.010006671     0.084210571     1.000000000     0.204472693
     0.020013342     0.084720618     1.000000000     0.205786050
     0.030020013     0.085235332     1.000000000     0.207112502
     0.040026684     0.085754771     1.000000000     0.208452227
     0.050033356     0.086278991     1.000000000     0.209805408
     0.060040027     0.086808054     1.000000000     0.211172230
     0.070046698     0.087342018     1.000000000     0.212552883
     0.080053369     0.087880944     1.000000000     0.213947558
     0.090060040     0.088424895     1.000000000     0.215356451
     0.100066711     0.088973934     1.000000000     0.216779761
     0.110073382     0.089528124     1.000000000     0.218217690
     0.120080053     0.090087531     1.000000000     0.219670444
     0.130086724     0.090652220     1.000000000     0.221138234
     0.140093396     0.091222258     1.000000000     0.222621274
     0.150100067     0.091797714     1.000000000     0.224119780
     0.160106738     0.092378656     1.000000000     0.225633975
     0.170113409     0.092965155     1.000000000     0.227164084
     0.180120080     0.093557283     1.000000000     0.228710338
     0.190126751     0.094155112     1.000000000     0.230272970
     0.200133422     0.094758715     1.000000000     0.231852219
     0.210140093     0.095368168     1.000000000     0.233448327
     0.220146765     0.095983547     1.000000000     0.235061543
     0.230153436     0.096604930     1.000000000     0.236692118
     0.240160107     0.097232394     1.000000000     0.238340310
     0.250166778     0.097866020     1.000000000     0.240006380
     0.260173449     0.098505890     1.000000000     0.241690595
     0.270180120     0.099152086     1.000000000     0.243393227
     0.280186791     0.099804692     1.000000000     0.245114552
     0.290193462     0.100463794     1.000000000     0.246854855
     0.300200133     0.101129479     1.000000000     0.248614422
     0.310206805     0.101801834     1.000000000     0.250393547
     0.320213476     0.102480951     1.000000000     0.252192529
     0.330220147     0.103166919     1.000000000     0.254011674
     0.340226818     0.103859833     1.000000000     0.255851293
     0.350233489     0.104559787     1.000000000     0.257711703
     0.360240160     0.105266877     1.000000000     0.259593228
     0.370246831     0.105981201     1.000000000     0.261496199
     0.380253502     0.106702859     1.000000000     0.263420951
     0.390260173     0.107431951     1.000000000     0.265367830
     0.400266845     0.108168581     1.000000000     0.267337184
     0.410273516     0.108912853     1.000000000     0.269329372
     0.420280187     0.109664875     1.000000000     0.271344760
     0.430286858     0.110424755     1.000000000     0.273383719
     0.440293529     0.111192603     1.000000000     0.275446630
     0.450300200     0.111968532     1.000000000     0.277533881
     0.460306871     0.112752656     1.000000000     0.279645868
     0.470313542     0.113545091     1.000000000     0.281782996
     0.480320213     0.114345957     1.000000000     0.283945678
     0.490326885     0.115155374     1.000000000     0.286134335
     0.500333556     0.115973465     1.000000000     0.288349398
     0.510340227     0.116800354     1.000000000     0.290591307
     0.520346898     0.117636170     1.000000000     0.292860512
     0.530353569     0.118481042     1.000000000     0.295157471
     0.540360240     0.119335102     1.000000000     0.297482654
     0.550366911     0.120198485     1.000000000     0.299836538
     0.560373582     0.121071328     1.000000000     0.302219615
     0.570380254     0.121953769     1.000000000     0.304632384
     0.580386925     0.122845952     1.000000000     0.307075357
     0.590393596     0.123748022     1.000000000     0.309549056
     0.600400267     0.124660125     1.000000000     0.312054016
     0.610406938     0.125582412     1.000000000     0.314590783
     0.620413609     0.126515037     1.000000000     0.317159916
     0.630420280     0.127458155     1.000000000     0.319761986
     0.640426951     0.128411925     1.000000000     0.322397577
     0.650433622     0.129376510     1.000000000     0.325067286
     0.660440294     0.130352074     1.000000000     0.327771726
     0.670446965     0.131338786     1.000000000     0.330511522
     0.680453636     0.132336819     1.000000000     0.333287313
     0.690460307     0.133346346     1.000000000     0.336099755
     0.700466978     0.134367546     1.000000000     0.338949518
     0.710473649     0.135400601     1.000000000     0.341837287
     0.720480320     0.136445697     1.000000000     0.344763766
     0.730486991     0.137503023     1.000000000     0.347729673
     0.740493662     0.138572771     1.000000000     0.350735744
     0.750500334     0.139655139     1.000000000     0.353782734
     0.760507005     0.140750328     1.000000000     0.356871415
     0.770513676     0.141858541     1.000000000     0.360002578
     0.780520347     0.142979988     1.000000000     0.363177033
     0.790527018     0.144114882     1.000000000     0.366395612
     0.800533689     0.145263441     1.000000000     0.369659164
     0.810540360     0.146425886     1.000000000     0.372968562
     0.820547031     0.147602444     1.000000000     0.376324700
     0.830553702     0.148793347     1.000000000     0.379728495
     0.840560374     0.149998829     1.000000000     0.383180886
     0.850567045     0.151219132     1.000000000     0.386682837
     0.860573716     0.152454502     1.000000000     0.390235337
     0.870580387     0.153705190     1.000000000     0.393839399
     0.880587058     0.154971452     1.000000000     0.397496063
     0.890593729     0.156253551     1.000000000     0.401206396
     0.900600400     0.157551752     1.000000000     0.404971494
     0.910607071     0.158866330     1.000000000     0.408792481
     0.920613742     0.160197564     1.000000000     0.412670510
     0.930620414     0.161545737     1.000000000     0.416606767
     0.940627085     0.162911142     1.000000000     0.420602468
     0.950633756     0.164294077     1.000000000     0.424658862
     0.960640427     0.165694844     1.000000000     0.428777232
     0.970647098     0.167113754     1.000000000     0.432958897
     0.980653769     0.168551126     1.000000000     0.437205213
     0.990660440     0.170007283     1.000000000     0.441517570
     1.000667111     0.171482558     1.000000000     0.445897400
     1.010673783     0.172977289     1.000000000     0.450346175
     1.020680454     0.174491824     1.000000000     0.454865407
     1.030687125     0.176026517     1.000000000     0.459456651
     1.040693796     0.177581730     1.000000000     0.464121508
     1.050700467     0.179157835     1.000000000     0.468861625
     1.060707138     0.180755212     1.000000000     0.473678695
     1.070713809     0.182374248     1.000000000     0.478574461
     1.080720480     0.184015341     1.000000000     0.483550718
     1.090727151     0.185678898     1.000000000     0.488609313
     1.100733823     0.187365333     1.000000000     0.493752149
     1.110740494     0.189075074     1.000000000     0.498981186
     1.120747165     0.190808556     1.000000000     0.504298441
     1.130753836     0.192566224     1.000000000     0.509705996
     1.140760507     0.194348536     1.000000000     0.515205992
     1.150767178     0.196155960     1.000000000     0.520800640
     1.160773849     0.197988975     1.000000000     0.526492217
     1.170780520     0.199848071     1.000000000     0.532283072
     1.180787191     0.201733750     1.000000000     0.538175629
     1.190793863     0.203646529     1.000000000     0.544172387
     1.200800534     0.205586934     1.000000000     0.550275926
     1.210807205     0.207555505     1.000000000     0.556488907
     1.220813876     0.209552798     1.000000000     0.562814079
     1.230820547     0.211579379     1.000000000     0.569254281
     1.240827218     0.213635832     1.000000000     0.575812443
     1.250833889     0.215722753     1.000000000     0.582491595
     1.260840560     0.217840753     1.000000000     0.589294865
     1.270847231     0.219990462     1.000000000     0.596225488
     1.280853903     0.222172522     1.000000000     0.603286809
     1.290860574     0.224387594     1.000000000     0.610482286
     1.300867245     0.226636357     1.000000000     0.617815496
     1.310873916     0.228919504     1.000000000     0.625290141
     1.320880587     0.231237750     1.000000000     0.632910051
     1.330887258     0.233591827     1.000000000     0.640679193
     1.340893929     0.235982487     1.000000000     0.648601673
     1.350900600     0.238410503     1.000000000     0.656681745
     1.360907272     0.240876666     1.000000000     0.664923817
     1.370913943     0.243381792     1.000000000     0.673332456
     1.380920614     0.245926716     1.000000000     0.681912398
     1.390927285     0.248512298     1.000000000     0.690668554
     1.400933956     0.251139421     1.000000000     0.699606018
     1.410940627     0.253808992     1.000000000     0.708730078
     1.420947298     0.256521944     1.000000000     0.718046219
     1.430953969     0.259279235     1.000000000     0.727560140
     1.440960640     0.262081852     1.000000000     0.737277758
     1.450967312     0.264930809     1.000000000     0.747205223
     1.460973983     0.267827147     1.000000000     0.757348925
     1.470980654     0.270771940     1.000000000     0.767715510
     1.480987325     0.273766291     1.000000000     0.778311888
     1.490993996     0.276811337     1.000000000     0.789145251
     1.501000667     0.279908246     1.000000000     0.800223084
     1.511007338     0.283058222     1.000000000     0.811553180
     1.521014009     0.286262505     1.000000000     0.823143658
     1.531020680     0.289522370     1.000000000     0.835002978
     1.541027352     0.292839132     1.000000000     0.847139958
     1.551034023     0.296214146     1.000000000     0.859563794
     1.561040694     0.299648807     1.000000000     0.872284084
     1.571047365     0.303144554     1.000000000     0.885310840
     1.581054036     0.306702870     1.000000000     0.898654522
     1.591060707     0.310325284     1.000000000     0.912326054
     1.601067378     0.314013373     1.000000000     0.926336854
     1.611074049     0.317768762     1.000000000     0.940698859
     1.621080720     0.321593131     1.000000000     0.955424559
     1.631087392     0.325488212     1.000000000     0.970527025
     1.641094063     0.329455792     1.000000000     0.986019941
     1.651100734     0.333497716     1.000000000     1.001917646
     1.661107405     0.337615891     1.000000000     1.018235169
     1.671114076     0.341812285     1.000000000     1.034988269
     1.681120747     0.346088932     1.000000000     1.052193484
     1.691127418     0.350447934     1.000000000     1.069868174
     1.701134089     0.354891464     1.000000000     1.088030576
     1.711140761     0.359421768     1.000000000     1.106699857
     1.721147432     0.364041169     1.000000000     1.125896175
     1.731154103     0.368752070     1.000000000     1.145640741
     1.741160774     0.373556957     1.000000000     1.165955888
     1.751167445     0.378458404     1.000000000     1.186865149
     1.761174116     0.383459075     1.000000000     1.208393332
     1.771180787     0.388561728     1.000000000     1.230566611
     1.781187458     0.393769223     1.000000000     1.253412618
     1.791194129     0.399084518     1.000000000     1.276960545
     1.801200801     0.404510684     1.000000000     1.301241255
     1.811207472     0.410050902     1.000000000     1.326287403
     1.821214143     0.415708470     1.000000000     1.352133563
     1.831220814     0.421486812     1.000000000     1.378816374
     1.841227485     0.427389479     1.000000000     1.406374692
     1.851234156     0.433420158     1.000000000     1.434849760
     1.861240827     0.439582676     1.000000000     1.464285391
     1.871247498     0.445881010     1.000000000     1.494728172
     1.881254169     0.452319290     1.000000000     1.526227683
     1.891260841     0.458901811     1.000000000     1.558836741
     1.901267512     0.465633037     1.000000000     1.592611664
     1.911274183     0.472517611     1.000000000     1.627612567
     1.921280854     0.479560366     1.000000000     1.663903682
     1.931287525     0.486766330     1.000000000     1.701553717
     1.941294196     0.494140740     1.000000000     1.740636249
     1.951300867     0.501689052     1.000000000     1.781230160
     1.961307538     0.509416949     1.000000000     1.823420124
     1.971314209     0.517330358     1.000000000     1.867297140
     1.981320881     0.525435460     1.000000000     1.912959141
     1.991327552     0.533738703     1.000000000     1.960511655
     2.001334223     0.542246818     1.000000000     2.010068558
     2.011340894     0.550966834     1.000000000     2.061752914
     2.021347565     0.559906095     1.000000000     2.115697914
     2.031354236     0.569072277     1.000000000     2.172047946
     2.041360907     0.578473407     1.000000000     2.230959787
     2.051367578     0.588117881     1.000000000     2.292603960
     2.061374249     0.598014490     1.000000000     2.357166281
     2.071380921     0.608172439     1.000000000     2.424849603
     2.081387592     0.618601374     1.000000000     2.495875823
     2.091394263     0.629311406     1.000000000     2.570488165
     2.101400934     0.640313141     1.000000000     2.648953816
     2.111407605     0.651617710     1.000000000     2.731566950
     2.121414276     0.663236802     1.000000000     2.818652235
     2.131420947     0.675182699     1.000000000     2.910568893
     2.141427618     0.687468313     1.000000000     3.007715440
     2.151434290     0.700107227     1.000000000     3.110535219
     2.161440961     0.713113740     1.000000000     3.219522905
     2.171447632     0.726502912     1.000000000     3.335232179
     2.181454303     0.740290620     1.000000000     3.458284814
     2.191460974     0.754493606     1.000000000     3.589381505
     2.201467645     0.769129545     1.000000000     3.729314830
     2.211474316     0.784217105     1.000000000     3.878984838
     2.221480987     0.799776020     1.000000000     4.039417929
     2.231487658     0.815827164     1.000000000     4.211789827
     2.241494330     0.832392639     1.000000000     4.397453729
     2.251501001     0.849495862     1.000000000     4.597975012
     2.261507672     0.867161666     1.000000000     4.815174336
     2.271514343     0.885416411     1.000000000     5.051181543
     2.281521014     0.904288095     1.000000000     5.308503583
     2.291527685     0.923806493     1.000000000     5.590110800
     2.301534356     0.944003294     1.000000000     5.899547430
     2.311541027     0.964912257     1.000000000     6.241074323
     2.321547698     0.986569388     1.000000000     6.619854902
     2.331554370     1.009013122     1.000000000     7.042199570
     2.341561041     1.032284540     1.000000000     7.515889726
     2.351567712     1.056427594     1.000000000     8.050610850
     2.361574383     1.081489366     1.000000000     8.658535502
     2.371581054     1.107520350     1.000000000     9.355112235
     2.381587725     1.134574769     1.000000000    10.160135027
     2.391594396     1.162710923     1.000000000    11.099186459
     2.401601067     1.191991585     1.000000000    12.205554092
     2.411607738     1.222484432     1.000000000    13.522677253
     2.421614410     1.254262538     1.000000000    15.106995225
     2.431621081     1.287404925     1.000000000    17.030505114
     2.441627752     1.321997177     1.000000000    19.380885321
     2.451634423     1.358132141     1.000000000    22.253784128
     2.461641094     1.395910708     1.000000000    25.726085105
     2.471647765     1.435442710     1.000000000    29.794039482
     2.481654436     1.476847933     1.000000000    34.274953648
     2.491661107     1.520257264     1.000000000    38.742142009
     2.501667779     1.565814015     1.000000000    42.650434223
     2.511674450     1.613675425     1.000000000    45.655624400
     2.521681121     1.664014397     1.000000000    47.744348968
     2.531687792     1.717021489     1.000000000    49.003580121
     2.541694463     1.772907226     1.000000000    49.516778783
     2.551701134     1.831904772     1.000000000    49.544220667
     2.561707805     1.894273046     1.000000000    49.469772020
     2.571714476     1.960300363     1.000000000    49.441014512
     2.581721147     2.030308697     1.000000000    49.246205884
     2.591727819     2.104658710     1.000000000    48.666269710
     2.601734490     2.183755693     1.000000000    47.878623566
     2.611741161     2.268056621     1.000000000    47.409964424
     2.621747832     2.358078574     1.000000000    47.802595411
     2.631754503     2.454408831     1.000000000    49.435176616
     2.641761174     2.557717029     1.000000000    52.559516288
     2.651767845     2.668769897     1.000000000    57.397520462
     2.661774516     2.788449198     1.000000000    64.203034444
     2.671781187     2.917773710     1.000000000    73.260596367
     2.681787859     3.057926322     1.000000000    84.798255453
     2.691794530     3.210287645     1.000000000    98.789433595
     2.701801201     3.376477990     1.000000000   114.704401627
     2.711807872     3.558410155     1.000000000   131.494731941
     2.721814543     3.758356312     1.000000000   148.083383134
     2.731821214     3.979033391     1.000000000   163.820034020
     2.741827885     4.223712962     1.000000000   177.981029166
     2.751834556     4.496363794     1.000000000   188.998303767
     2.761841227     4.801838372     1.000000000   194.881595245
     2.771847899     5.146118978     1.000000000   194.504506716
     2.781854570     5.536645040     1.000000000   188.086829687
     2.791861241     5.982751932     1.000000000   176.320178313
     2.801867912     6.496263024     1.000000000   159.932270013
     2.811874583     7.092292016     1.000000000   140.508015367
     2.821881254     7.790330793     1.000000000   120.554985345
     2.831887925     8.615714805     1.000000000   102.296217314
     2.841894596     9.601558466     1.000000000    86.861672924
     2.851901268    10.791194954     1.000000000    74.432889517
     2.861907939    12.240929579     1.000000000    64.711643467
     2.871914610    14.022266550     1.000000000    57.264657833
     2.881921281    16.221164615     1.000000000    51.688530152
     2.891927952    18.928524673     1.000000000    47.666042648
     2.901934623    22.211090911     1.000000000    44.975337881
     2.911941294    26.051217482     1.000000000    43.484187862
     2.921947965    30.268116655     1.000000000    43.142775260
     2.931954636    34.498121066     1.000000000    43.978935123
     2.941961308    38.324022639     1.000000000    46.094205061
     2.951967979    41.445401338     1.000000000    49.652495808
     2.961974650    43.675819433     1.000000000    54.840928501
     2.971981321    44.910561751     1.000000000    61.760707982
     2.981987992    45.241210043     1.000000000    70.185187341
     2.991994663    44.903832652     1.000000000    79.167872160
     3.002001334    43.945658906     1.000000000    86.738869010
     3.012008005    42.106131521     1.000000000    90.333089912
     3.022014676    39.205170430     1.000000000    88.281237889
