# BSE absorption — eigenvector route
# polarization: b3
# V_cell = 270.107000 bohr^3,  N_k = 64
# eta = 0.1500 eV,  n_spin = 1,  n_spinor = 2
# n_eigenvectors = 100
 # Column 1: omega
 # Column 2: eps2(omega)
 # Column 3: eps1(omega)
 # Column 4: JDOS(omega)
     0.000000000     0.115604139     1.000000000     0.608246388
     0.010016694     0.116320782     1.000000000     0.612134384
     0.020033389     0.117044154     1.000000000     0.616060913
     0.030050083     0.117774340     1.000000000     0.620026500
     0.040066778     0.118511427     1.000000000     0.624031677
     0.050083472     0.119255502     1.000000000     0.628076985
     0.060100167     0.120006654     1.000000000     0.632162976
     0.070116861     0.120764975     1.000000000     0.636290211
     0.080133556     0.121530555     1.000000000     0.640459260
     0.090150250     0.122303490     1.000000000     0.644670705
     0.100166945     0.123083873     1.000000000     0.648925137
     0.110183639     0.123871802     1.000000000     0.653223158
     0.120200334     0.124667375     1.000000000     0.657565380
     0.130217028     0.125470691     1.000000000     0.661952428
     0.140233723     0.126281852     1.000000000     0.666384935
     0.150250417     0.127100961     1.000000000     0.670863549
     0.160267112     0.127928124     1.000000000     0.675388927
     0.170283806     0.128763446     1.000000000     0.679961741
     0.180300501     0.129607036     1.000000000     0.684582672
     0.190317195     0.130459004     1.000000000     0.689252415
     0.200333890     0.131319462     1.000000000     0.693971679
     0.210350584     0.132188525     1.000000000     0.698741185
     0.220367279     0.133066308     1.000000000     0.703561667
     0.230383973     0.133952929     1.000000000     0.708433874
     0.240400668     0.134848508     1.000000000     0.713358568
     0.250417362     0.135753167     1.000000000     0.718336526
     0.260434057     0.136667030     1.000000000     0.723368540
     0.270450751     0.137590222     1.000000000     0.728455415
     0.280467446     0.138522873     1.000000000     0.733597975
     0.290484140     0.139465113     1.000000000     0.738797057
     0.300500835     0.140417075     1.000000000     0.744053515
     0.310517529     0.141378893     1.000000000     0.749368220
     0.320534224     0.142350706     1.000000000     0.754742058
     0.330550918     0.143332653     1.000000000     0.760175936
     0.340567613     0.144324877     1.000000000     0.765670776
     0.350584307     0.145327523     1.000000000     0.771227518
     0.360601002     0.146340738     1.000000000     0.776847121
     0.370617696     0.147364673     1.000000000     0.782530565
     0.380634391     0.148399480     1.000000000     0.788278847
     0.390651085     0.149445315     1.000000000     0.794092986
     0.400667780     0.150502336     1.000000000     0.799974019
     0.410684474     0.151570705     1.000000000     0.805923006
     0.420701169     0.152650586     1.000000000     0.811941029
     0.430717863     0.153742147     1.000000000     0.818029191
     0.440734558     0.154845557     1.000000000     0.824188617
     0.450751252     0.155960990     1.000000000     0.830420456
     0.460767947     0.157088623     1.000000000     0.836725881
     0.470784641     0.158228635     1.000000000     0.843106090
     0.480801336     0.159381211     1.000000000     0.849562304
     0.490818030     0.160546536     1.000000000     0.856095771
     0.500834725     0.161724802     1.000000000     0.862707765
     0.510851419     0.162916201     1.000000000     0.869399587
     0.520868114     0.164120931     1.000000000     0.876172566
     0.530884808     0.165339194     1.000000000     0.883028060
     0.540901503     0.166571195     1.000000000     0.889967454
     0.550918197     0.167817142     1.000000000     0.896992165
     0.560934891     0.169077249     1.000000000     0.904103640
     0.570951586     0.170351734     1.000000000     0.911303357
     0.580968280     0.171640816     1.000000000     0.918592827
     0.590984975     0.172944722     1.000000000     0.925973594
     0.601001669     0.174263683     1.000000000     0.933447237
     0.611018364     0.175597932     1.000000000     0.941015369
     0.621035058     0.176947709     1.000000000     0.948679639
     0.631051753     0.178313258     1.000000000     0.956441734
     0.641068447     0.179694827     1.000000000     0.964303378
     0.651085142     0.181092671     1.000000000     0.972266335
     0.661101836     0.182507048     1.000000000     0.980332407
     0.671118531     0.183938223     1.000000000     0.988503441
     0.681135225     0.185386464     1.000000000     0.996781324
     0.691151920     0.186852047     1.000000000     1.005167987
     0.701168614     0.188335252     1.000000000     1.013665406
     0.711185309     0.189836365     1.000000000     1.022275603
     0.721202003     0.191355679     1.000000000     1.031000648
     0.731218698     0.192893491     1.000000000     1.039842659
     0.741235392     0.194450106     1.000000000     1.048803805
     0.751252087     0.196025835     1.000000000     1.057886308
     0.761268781     0.197620994     1.000000000     1.067092441
     0.771285476     0.199235907     1.000000000     1.076424533
     0.781302170     0.200870905     1.000000000     1.085884969
     0.791318865     0.202526326     1.000000000     1.095476192
     0.801335559     0.204202514     1.000000000     1.105200707
     0.811352254     0.205899821     1.000000000     1.115061078
     0.821368948     0.207618608     1.000000000     1.125059934
     0.831385643     0.209359241     1.000000000     1.135199968
     0.841402337     0.211122097     1.000000000     1.145483944
     0.851419032     0.212907558     1.000000000     1.155914692
     0.861435726     0.214716017     1.000000000     1.166495115
     0.871452421     0.216547875     1.000000000     1.177228190
     0.881469115     0.218403540     1.000000000     1.188116971
     0.891485810     0.220283431     1.000000000     1.199164590
     0.901502504     0.222187977     1.000000000     1.210374260
     0.911519199     0.224117614     1.000000000     1.221749279
     0.921535893     0.226072790     1.000000000     1.233293030
     0.931552588     0.228053962     1.000000000     1.245008986
     0.941569282     0.230061598     1.000000000     1.256900712
     0.951585977     0.232096176     1.000000000     1.268971869
     0.961602671     0.234158186     1.000000000     1.281226215
     0.971619366     0.236248128     1.000000000     1.293667611
     0.981636060     0.238366514     1.000000000     1.306300021
     0.991652755     0.240513868     1.000000000     1.319127520
     1.001669449     0.242690728     1.000000000     1.332154293
     1.011686144     0.244897641     1.000000000     1.345384641
     1.021702838     0.247135169     1.000000000     1.358822987
     1.031719533     0.249403888     1.000000000     1.372473875
     1.041736227     0.251704387     1.000000000     1.386341980
     1.051752922     0.254037269     1.000000000     1.400432107
     1.061769616     0.256403150     1.000000000     1.414749201
     1.071786311     0.258802664     1.000000000     1.429298346
     1.081803005     0.261236458     1.000000000     1.444084777
     1.091819699     0.263705196     1.000000000     1.459113878
     1.101836394     0.266209557     1.000000000     1.474391193
     1.111853088     0.268750239     1.000000000     1.489922429
     1.121869783     0.271327956     1.000000000     1.505713462
     1.131886477     0.273943438     1.000000000     1.521770343
     1.141903172     0.276597437     1.000000000     1.538099308
     1.151919866     0.279290722     1.000000000     1.554706780
     1.161936561     0.282024080     1.000000000     1.571599377
     1.171953255     0.284798321     1.000000000     1.588783922
     1.181969950     0.287614275     1.000000000     1.606267450
     1.191986644     0.290472790     1.000000000     1.624057211
     1.202003339     0.293374741     1.000000000     1.642160688
     1.212020033     0.296321023     1.000000000     1.660585595
     1.222036728     0.299312555     1.000000000     1.679339895
     1.232053422     0.302350279     1.000000000     1.698431805
     1.242070117     0.305435165     1.000000000     1.717869807
     1.252086811     0.308568205     1.000000000     1.737662658
     1.262103506     0.311750420     1.000000000     1.757819403
     1.272120200     0.314982858     1.000000000     1.778349386
     1.282136895     0.318266596     1.000000000     1.799262258
     1.292153589     0.321602738     1.000000000     1.820567996
     1.302170284     0.324992421     1.000000000     1.842276914
     1.312186978     0.328436813     1.000000000     1.864399673
     1.322203673     0.331937111     1.000000000     1.886947303
     1.332220367     0.335494550     1.000000000     1.909931211
     1.342237062     0.339110396     1.000000000     1.933363204
     1.352253756     0.342785954     1.000000000     1.957255499
     1.362270451     0.346522562     1.000000000     1.981620748
     1.372287145     0.350321601     1.000000000     2.006472051
     1.382303840     0.354184487     1.000000000     2.031822979
     1.392320534     0.358112680     1.000000000     2.057687594
     1.402337229     0.362107681     1.000000000     2.084080470
     1.412353923     0.366171035     1.000000000     2.111016716
     1.422370618     0.370304333     1.000000000     2.138512005
     1.432387312     0.374509214     1.000000000     2.166582590
     1.442404007     0.378787364     1.000000000     2.195245340
     1.452420701     0.383140519     1.000000000     2.224517766
     1.462437396     0.387570471     1.000000000     2.254418046
     1.472454090     0.392079063     1.000000000     2.284965066
     1.482470785     0.396668195     1.000000000     2.316178445
     1.492487479     0.401339827     1.000000000     2.348078573
     1.502504174     0.406095977     1.000000000     2.380686653
     1.512520868     0.410938730     1.000000000     2.414024732
     1.522537563     0.415870232     1.000000000     2.448115753
     1.532554257     0.420892699     1.000000000     2.482983588
     1.542570952     0.426008418     1.000000000     2.518653097
     1.552587646     0.431219749     1.000000000     2.555150167
     1.562604341     0.436529126     1.000000000     2.592501773
     1.572621035     0.441939064     1.000000000     2.630736029
     1.582637730     0.447452160     1.000000000     2.669882250
     1.592654424     0.453071097     1.000000000     2.709971015
     1.602671119     0.458798646     1.000000000     2.751034231
     1.612687813     0.464637669     1.000000000     2.793105211
     1.622704508     0.470591128     1.000000000     2.836218743
     1.632721202     0.476662083     1.000000000     2.880411174
     1.642737896     0.482853697     1.000000000     2.925720499
     1.652754591     0.489169244     1.000000000     2.972186446
     1.662771285     0.495612111     1.000000000     3.019850581
     1.672787980     0.502185803     1.000000000     3.068756408
     1.682804674     0.508893946     1.000000000     3.118949483
     1.692821369     0.515740298     1.000000000     3.170477530
     1.702838063     0.522728747     1.000000000     3.223390574
     1.712854758     0.529863323     1.000000000     3.277741073
     1.722871452     0.537148202     1.000000000     3.333584063
     1.732888147     0.544587713     1.000000000     3.390977322
     1.742904841     0.552186340     1.000000000     3.449981527
     1.752921536     0.559948739     1.000000000     3.510660445
     1.762938230     0.567879735     1.000000000     3.573081119
     1.772954925     0.575984338     1.000000000     3.637314076
     1.782971619     0.584267746     1.000000000     3.703433555
     1.792988314     0.592735356     1.000000000     3.771517746
     1.803005008     0.601392774     1.000000000     3.841649044
     1.813021703     0.610245825     1.000000000     3.913914336
     1.823038397     0.619300559     1.000000000     3.988405295
     1.833055092     0.628563268     1.000000000     4.065218710
     1.843071786     0.638040495     1.000000000     4.144456837
     1.853088481     0.647739044     1.000000000     4.226227775
     1.863105175     0.657665997     1.000000000     4.310645883
     1.873121870     0.667828724     1.000000000     4.397832219
     1.883138564     0.678234901     1.000000000     4.487915031
     1.893155259     0.688892521     1.000000000     4.581030274
     1.903171953     0.699809915     1.000000000     4.677322185
     1.913188648     0.710995766     1.000000000     4.776943900
     1.923205342     0.722459128     1.000000000     4.880058127
     1.933222037     0.734209447     1.000000000     4.986837883
     1.943238731     0.746256579     1.000000000     5.097467294
     1.953255426     0.758610813     1.000000000     5.212142466
     1.963272120     0.771282895     1.000000000     5.331072444
     1.973288815     0.784284052     1.000000000     5.454480253
     1.983305509     0.797626019     1.000000000     5.582604038
     1.993322204     0.811321066     1.000000000     5.715698322
     2.003338898     0.825382029     1.000000000     5.854035369
     2.013355593     0.839822340     1.000000000     5.997906700
     2.023372287     0.854656064     1.000000000     6.147624737
     2.033388982     0.869897932     1.000000000     6.303524627
     2.043405676     0.885563382     1.000000000     6.465966242
     2.053422371     0.901668600     1.000000000     6.635336378
     2.063439065     0.918230563     1.000000000     6.812051184
     2.073455760     0.935267088     1.000000000     6.996558837
     2.083472454     0.952796881     1.000000000     7.189342490
     2.093489149     0.970839592     1.000000000     7.390923527
     2.103505843     0.989415875     1.000000000     7.601865158
     2.113522538     1.008547448     1.000000000     7.822776379
     2.123539232     1.028257159     1.000000000     8.054316348
     2.133555927     1.048569062     1.000000000     8.297199207
     2.143572621     1.069508493     1.000000000     8.552199398
     2.153589316     1.091102151     1.000000000     8.820157509
     2.163606010     1.113378189     1.000000000     9.101986705
     2.173622705     1.136366313     1.000000000     9.398679760
     2.183639399     1.160097882     1.000000000     9.711316753
     2.193656093     1.184606023     1.000000000    10.041073428
     2.203672788     1.209925755     1.000000000    10.389230231
     2.213689482     1.236094114     1.000000000    10.757182011
     2.223706177     1.263150299     1.000000000    11.146448307
     2.233722871     1.291135827     1.000000000    11.558684133
     2.243739566     1.320094697     1.000000000    11.995691039
     2.253756260     1.350073571     1.000000000    12.459428168
     2.263772955     1.381121972     1.000000000    12.952022837
     2.273789649     1.413292494     1.000000000    13.475779999
     2.283806344     1.446641037     1.000000000    14.033189656
     2.293823038     1.481227058     1.000000000    14.626930942
     2.303839733     1.517113844     1.000000000    15.259871167
     2.313856427     1.554368815     1.000000000    15.935057532
     2.323873122     1.593063847     1.000000000    16.655698579
     2.333889816     1.633275631     1.000000000    17.425131681
     2.343906511     1.675086064     1.000000000    18.246772085
     2.353923205     1.718582676     1.000000000    19.124038317
     2.363939900     1.763859095     1.000000000    20.060248372
     2.373956594     1.811015565     1.000000000    21.058481297
     2.383973289     1.860159505     1.000000000    22.121400186
     2.393989983     1.911406130     1.000000000    23.251035675
     2.404006678     1.964879130     1.000000000    24.448534701
     2.414023372     2.020711418     1.000000000    25.713887911
     2.424040067     2.079045957     1.000000000    27.045660895
     2.434056761     2.140036665     1.000000000    28.440768186
     2.444073456     2.203849424     1.000000000    29.894341931
     2.454090150     2.270663180     1.000000000    31.399754640
     2.464106845     2.340671174     1.000000000    32.948851363
     2.474123539     2.414082292     1.000000000    34.532426040
     2.484140234     2.491122567     1.000000000    36.140938659
     2.494156928     2.572036833     1.000000000    37.765420299
     2.504173623     2.657090571     1.000000000    39.398465600
     2.514190317     2.746571938     1.000000000    41.035182684
     2.524207012     2.840794034     1.000000000    42.673970657
     2.534223706     2.940097397     1.000000000    44.317024881
     2.544240401     3.044852789     1.000000000    45.970518790
     2.554257095     3.155464262     1.000000000    47.644459866
     2.564273790     3.272372565     1.000000000    49.352249404
     2.574290484     3.396058910     1.000000000    51.109982250
     2.584307179     3.527049130     1.000000000    52.935507519
     2.594323873     3.665918253     1.000000000    54.847249359
     2.604340568     3.813295536     1.000000000    56.862777210
     2.614357262     3.969869973     1.000000000    58.997130185
     2.624373957     4.136396277     1.000000000    61.260939003
     2.634390651     4.313701369     1.000000000    63.658438952
     2.644407346     4.502691319     1.000000000    66.185514205
     2.654424040     4.704358696     1.000000000    68.827949342
     2.664440735     4.919790237     1.000000000    71.560086865
     2.674457429     5.150174643     1.000000000    74.344099460
     2.684474124     5.396810259     1.000000000    77.130078089
     2.694490818     5.661112254     1.000000000    79.857102941
     2.704507513     5.944618718     1.000000000    82.455397076
     2.714524207     6.248994916     1.000000000    84.849563850
     2.724540902     6.576034575     1.000000000    86.962788923
     2.734557596     6.927656735     1.000000000    88.721759200
     2.744574290     7.305896151     1.000000000    90.061925834
     2.754590985     7.712884634     1.000000000    90.932628718
     2.764607679     8.150819963     1.000000000    91.301526962
     2.774624374     8.621918146     1.000000000    91.157774777
     2.784641068     9.128343940     1.000000000    90.513473945
     2.794657763     9.672113715     1.000000000    89.403128930
     2.804674457    10.254964300     1.000000000    87.881102483
     2.814691152    10.878181636     1.000000000    86.017365065
     2.824707846    11.542384517     1.000000000    83.892085809
     2.834724541    12.247262058     1.000000000    81.589765956
     2.844741235    12.991269586     1.000000000    79.193629298
     2.854757930    13.771297101     1.000000000    76.780856417
     2.864774624    14.582337194     1.000000000    74.419020556
     2.874791319    15.417194532     1.000000000    72.163821801
     2.884808013    16.266293562     1.000000000    70.057992613
     2.894824708    17.117650318     1.000000000    68.131107998
     2.904841402    17.957071737     1.000000000    66.399989832
     2.914858097    18.768626172     1.000000000    64.869432597
     2.924874791    19.535390284     1.000000000    63.533069131
     2.934891486    20.240425646     1.000000000    62.374310760
     2.944908180    20.867886594     1.000000000    61.367410661
     2.954924875    21.404126640     1.000000000    60.478789318
     2.964941569    21.838668190     1.000000000    59.668803094
     2.974958264    22.164931758     1.000000000    58.894109085
     2.984974958    22.380673332     1.000000000    58.110667537
     2.994991653    22.488129082     1.000000000    57.277236249
     3.005008347    22.493894648     1.000000000    56.358992919
     3.015025042    22.408566991     1.000000000    55.330748533
     3.025041736    22.246164344     1.000000000    54.179172338
