# BSE absorption — eigenvector route
# polarization: b3
# V_cell = 270.107000 bohr^3,  N_k = 64
# eta = 0.0500 eV,  n_spin = 1,  n_spinor = 2
# n_eigenvectors = 200
 # Column 1: omega
 # Column 2: eps2(omega)
 # Column 3: eps1(omega)
 # Column 4: JDOS(omega)
     0.000000000     0.085137147     1.000000000     0.203172255
     0.010006671     0.085650683     1.000000000     0.204472693
     0.020013342     0.086168898     1.000000000     0.205786050
     0.030020013     0.086691850     1.000000000     0.207112502
     0.040026684     0.087219595     1.000000000     0.208452227
     0.050033356     0.087752194     1.000000000     0.209805408
     0.060040027     0.088289705     1.000000000     0.211172231
     0.070046698     0.088832191     1.000000000     0.212552883
     0.080053369     0.089379712     1.000000000     0.213947558
     0.090060040     0.089932332     1.000000000     0.215356451
     0.100066711     0.090490115     1.000000000     0.216779761
     0.110073382     0.091053124     1.000000000     0.218217690
     0.120080053     0.091621427     1.000000000     0.219670444
     0.130086724     0.092195089     1.000000000     0.221138234
     0.140093396     0.092774179     1.000000000     0.222621274
     0.150100067     0.093358766     1.000000000     0.224119780
     0.160106738     0.093948919     1.000000000     0.225633975
     0.170113409     0.094544711     1.000000000     0.227164084
     0.180120080     0.095146213     1.000000000     0.228710338
     0.190126751     0.095753499     1.000000000     0.230272970
     0.200133422     0.096366644     1.000000000     0.231852219
     0.210140093     0.096985723     1.000000000     0.233448327
     0.220146765     0.097610815     1.000000000     0.235061543
     0.230153436     0.098241996     1.000000000     0.236692118
     0.240160107     0.098879348     1.000000000     0.238340310
     0.250166778     0.099522951     1.000000000     0.240006380
     0.260173449     0.100172888     1.000000000     0.241690595
     0.270180120     0.100829242     1.000000000     0.243393227
     0.280186791     0.101492098     1.000000000     0.245114552
     0.290193462     0.102161544     1.000000000     0.246854855
     0.300200133     0.102837667     1.000000000     0.248614422
     0.310206805     0.103520556     1.000000000     0.250393547
     0.320213476     0.104210304     1.000000000     0.252192529
     0.330220147     0.104907002     1.000000000     0.254011674
     0.340226818     0.105610744     1.000000000     0.255851293
     0.350233489     0.106321627     1.000000000     0.257711703
     0.360240160     0.107039748     1.000000000     0.259593228
     0.370246831     0.107765206     1.000000000     0.261496199
     0.380253502     0.108498101     1.000000000     0.263420951
     0.390260173     0.109238537     1.000000000     0.265367830
     0.400266845     0.109986618     1.000000000     0.267337184
     0.410273516     0.110742449     1.000000000     0.269329372
     0.420280187     0.111506139     1.000000000     0.271344760
     0.430286858     0.112277798     1.000000000     0.273383719
     0.440293529     0.113057538     1.000000000     0.275446630
     0.450300200     0.113845473     1.000000000     0.277533881
     0.460306871     0.114641718     1.000000000     0.279645868
     0.470313542     0.115446391     1.000000000     0.281782996
     0.480320213     0.116259613     1.000000000     0.283945678
     0.490326885     0.117081505     1.000000000     0.286134335
     0.500333556     0.117912193     1.000000000     0.288349398
     0.510340227     0.118751802     1.000000000     0.290591307
     0.520346898     0.119600462     1.000000000     0.292860512
     0.530353569     0.120458304     1.000000000     0.295157471
     0.540360240     0.121325462     1.000000000     0.297482654
     0.550366911     0.122202073     1.000000000     0.299836538
     0.560373582     0.123088273     1.000000000     0.302219615
     0.570380254     0.123984206     1.000000000     0.304632384
     0.580386925     0.124890015     1.000000000     0.307075357
     0.590393596     0.125805847     1.000000000     0.309549056
     0.600400267     0.126731850     1.000000000     0.312054016
     0.610406938     0.127668178     1.000000000     0.314590783
     0.620413609     0.128614984     1.000000000     0.317159916
     0.630420280     0.129572428     1.000000000     0.319761986
     0.640426951     0.130540670     1.000000000     0.322397577
     0.650433622     0.131519874     1.000000000     0.325067286
     0.660440294     0.132510207     1.000000000     0.327771727
     0.670446965     0.133511840     1.000000000     0.330511522
     0.680453636     0.134524947     1.000000000     0.333287313
     0.690460307     0.135549704     1.000000000     0.336099755
     0.700466978     0.136586293     1.000000000     0.338949518
     0.710473649     0.137634897     1.000000000     0.341837287
     0.720480320     0.138695704     1.000000000     0.344763766
     0.730486991     0.139768905     1.000000000     0.347729673
     0.740493662     0.140854697     1.000000000     0.350735744
     0.750500334     0.141953277     1.000000000     0.353782734
     0.760507005     0.143064849     1.000000000     0.356871415
     0.770513676     0.144189620     1.000000000     0.360002578
     0.780520347     0.145327801     1.000000000     0.363177033
     0.790527018     0.146479609     1.000000000     0.366395612
     0.800533689     0.147645263     1.000000000     0.369659164
     0.810540360     0.148824987     1.000000000     0.372968562
     0.820547031     0.150019012     1.000000000     0.376324700
     0.830553702     0.151227570     1.000000000     0.379728495
     0.840560374     0.152450900     1.000000000     0.383180886
     0.850567045     0.153689246     1.000000000     0.386682837
     0.860573716     0.154942857     1.000000000     0.390235337
     0.870580387     0.156211987     1.000000000     0.393839399
     0.880587058     0.157496895     1.000000000     0.397496063
     0.890593729     0.158797845     1.000000000     0.401206396
     0.900600400     0.160115109     1.000000000     0.404971494
     0.910607071     0.161448961     1.000000000     0.408792481
     0.920613742     0.162799686     1.000000000     0.412670510
     0.930620414     0.164167570     1.000000000     0.416606767
     0.940627085     0.165552908     1.000000000     0.420602468
     0.950633756     0.166956001     1.000000000     0.424658862
     0.960640427     0.168377156     1.000000000     0.428777232
     0.970647098     0.169816687     1.000000000     0.432958897
     0.980653769     0.171274916     1.000000000     0.437205213
     0.990660440     0.172752170     1.000000000     0.441517570
     1.000667111     0.174248786     1.000000000     0.445897400
     1.010673783     0.175765105     1.000000000     0.450346175
     1.020680454     0.177301479     1.000000000     0.454865407
     1.030687125     0.178858266     1.000000000     0.459456651
     1.040693796     0.180435833     1.000000000     0.464121508
     1.050700467     0.182034555     1.000000000     0.468861625
     1.060707138     0.183654815     1.000000000     0.473678695
     1.070713809     0.185297007     1.000000000     0.478574461
     1.080720480     0.186961531     1.000000000     0.483550718
     1.090727151     0.188648798     1.000000000     0.488609313
     1.100733823     0.190359230     1.000000000     0.493752149
     1.110740494     0.192093255     1.000000000     0.498981186
     1.120747165     0.193851316     1.000000000     0.504298441
     1.130753836     0.195633862     1.000000000     0.509705996
     1.140760507     0.197441355     1.000000000     0.515205992
     1.150767178     0.199274268     1.000000000     0.520800640
     1.160773849     0.201133085     1.000000000     0.526492217
     1.170780520     0.203018302     1.000000000     0.532283072
     1.180787191     0.204930427     1.000000000     0.538175629
     1.190793863     0.206869980     1.000000000     0.544172387
     1.200800534     0.208837494     1.000000000     0.550275926
     1.210807205     0.210833515     1.000000000     0.556488907
     1.220813876     0.212858603     1.000000000     0.562814079
     1.230820547     0.214913332     1.000000000     0.569254281
     1.240827218     0.216998289     1.000000000     0.575812443
     1.250833889     0.219114079     1.000000000     0.582491595
     1.260840560     0.221261319     1.000000000     0.589294865
     1.270847231     0.223440644     1.000000000     0.596225488
     1.280853903     0.225652703     1.000000000     0.603286809
     1.290860574     0.227898164     1.000000000     0.610482286
     1.300867245     0.230177711     1.000000000     0.617815496
     1.310873916     0.232492047     1.000000000     0.625290141
     1.320880587     0.234841893     1.000000000     0.632910051
     1.330887258     0.237227987     1.000000000     0.640679193
     1.340893929     0.239651090     1.000000000     0.648601673
     1.350900600     0.242111981     1.000000000     0.656681745
     1.360907272     0.244611461     1.000000000     0.664923817
     1.370913943     0.247150352     1.000000000     0.673332456
     1.380920614     0.249729498     1.000000000     0.681912398
     1.390927285     0.252349768     1.000000000     0.690668554
     1.400933956     0.255012052     1.000000000     0.699606018
     1.410940627     0.257717267     1.000000000     0.708730078
     1.420947298     0.260466354     1.000000000     0.718046219
     1.430953969     0.263260281     1.000000000     0.727560140
     1.440960640     0.266100044     1.000000000     0.737277758
     1.450967312     0.268986666     1.000000000     0.747205223
     1.460973983     0.271921199     1.000000000     0.757348925
     1.470980654     0.274904727     1.000000000     0.767715510
     1.480987325     0.277938364     1.000000000     0.778311888
     1.490993996     0.281023256     1.000000000     0.789145251
     1.501000667     0.284160583     1.000000000     0.800223084
     1.511007338     0.287351560     1.000000000     0.811553180
     1.521014009     0.290597437     1.000000000     0.823143659
     1.531020680     0.293899503     1.000000000     0.835002978
     1.541027352     0.297259085     1.000000000     0.847139958
     1.551034023     0.300677549     1.000000000     0.859563794
     1.561040694     0.304156304     1.000000000     0.872284084
     1.571047365     0.307696801     1.000000000     0.885310840
     1.581054036     0.311300537     1.000000000     0.898654522
     1.591060707     0.314969055     1.000000000     0.912326054
     1.601067378     0.318703945     1.000000000     0.926336854
     1.611074049     0.322506849     1.000000000     0.940698859
     1.621080720     0.326379460     1.000000000     0.955424560
     1.631087392     0.330323526     1.000000000     0.970527025
     1.641094063     0.334340849     1.000000000     0.986019941
     1.651100734     0.338433293     1.000000000     1.001917646
     1.661107405     0.342602779     1.000000000     1.018235169
     1.671114076     0.346851294     1.000000000     1.034988269
     1.681120747     0.351180890     1.000000000     1.052193484
     1.691127418     0.355593686     1.000000000     1.069868174
     1.701134089     0.360091875     1.000000000     1.088030576
     1.711140761     0.364677722     1.000000000     1.106699857
     1.721147432     0.369353571     1.000000000     1.125896175
     1.731154103     0.374121845     1.000000000     1.145640741
     1.741160774     0.378985052     1.000000000     1.165955888
     1.751167445     0.383945788     1.000000000     1.186865149
     1.761174116     0.389006740     1.000000000     1.208393332
     1.771180787     0.394170690     1.000000000     1.230566611
     1.781187458     0.399440521     1.000000000     1.253412618
     1.791194129     0.404819219     1.000000000     1.276960545
     1.801200801     0.410309879     1.000000000     1.301241255
     1.811207472     0.415915709     1.000000000     1.326287403
     1.821214143     0.421640037     1.000000000     1.352133563
     1.831220814     0.427486316     1.000000000     1.378816374
     1.841227485     0.433458125     1.000000000     1.406374692
     1.851234156     0.439559184     1.000000000     1.434849760
     1.861240827     0.445793353     1.000000000     1.464285391
     1.871247498     0.452164642     1.000000000     1.494728172
     1.881254169     0.458677216     1.000000000     1.526227683
     1.891260841     0.465335407     1.000000000     1.558836741
     1.901267512     0.472143717     1.000000000     1.592611665
     1.911274183     0.479106828     1.000000000     1.627612567
     1.921280854     0.486229614     1.000000000     1.663903683
     1.931287525     0.493517147     1.000000000     1.701553718
     1.941294196     0.500974709     1.000000000     1.740636249
     1.951300867     0.508607800     1.000000000     1.781230161
     1.961307538     0.516422156     1.000000000     1.823420124
     1.971314209     0.524423752     1.000000000     1.867297141
     1.981320881     0.532618823     1.000000000     1.912959142
     1.991327552     0.541013874     1.000000000     1.960511655
     2.001334223     0.549615694     1.000000000     2.010068558
     2.011340894     0.558431374     1.000000000     2.061752914
     2.021347565     0.567468322     1.000000000     2.115697915
     2.031354236     0.576734282     1.000000000     2.172047947
     2.041360907     0.586237351     1.000000000     2.230959787
     2.051367578     0.595986003     1.000000000     2.292603961
     2.061374249     0.605989106     1.000000000     2.357166281
     2.071380921     0.616255950     1.000000000     2.424849604
     2.081387592     0.626796267     1.000000000     2.495875823
     2.091394263     0.637620263     1.000000000     2.570488165
     2.101400934     0.648738642     1.000000000     2.648953816
     2.111407605     0.660162640     1.000000000     2.731566951
     2.121414276     0.671904056     1.000000000     2.818652235
     2.131420947     0.683975290     1.000000000     2.910568893
     2.141427618     0.696389378     1.000000000     3.007715440
     2.151434290     0.709160037     1.000000000     3.110535219
     2.161440961     0.722301708     1.000000000     3.219522906
     2.171447632     0.735829602     1.000000000     3.335232179
     2.181454303     0.749759756     1.000000000     3.458284814
     2.191460974     0.764109087     1.000000000     3.589381506
     2.201467645     0.778895453     1.000000000     3.729314830
     2.211474316     0.794137723     1.000000000     3.878984838
     2.221480987     0.809855841     1.000000000     4.039417929
     2.231487658     0.826070913     1.000000000     4.211789828
     2.241494330     0.842805286     1.000000000     4.397453729
     2.251501001     0.860082644     1.000000000     4.597975012
     2.261507672     0.877928109     1.000000000     4.815174337
     2.271514343     0.896368348     1.000000000     5.051181543
     2.281521014     0.915431702     1.000000000     5.308503584
     2.291527685     0.935148307     1.000000000     5.590110801
     2.301534356     0.955550252     1.000000000     5.899547430
     2.311541027     0.976671729     1.000000000     6.241074323
     2.321547698     0.998549213     1.000000000     6.619854903
     2.331554370     1.021221659     1.000000000     7.042199571
     2.341561041     1.044730709     1.000000000     7.515889726
     2.351567712     1.069120933     1.000000000     8.050610851
     2.361574383     1.094440091     1.000000000     8.658535503
     2.371581054     1.120739424     1.000000000     9.355112236
     2.381587725     1.148073976     1.000000000    10.160135028
     2.391594396     1.176502955     1.000000000    11.099186460
     2.401601067     1.206090133     1.000000000    12.205554093
     2.411607738     1.236904299     1.000000000    13.522677254
     2.421614410     1.269019760     1.000000000    15.106995226
     2.431621081     1.302516907     1.000000000    17.030505115
     2.441627752     1.337482850     1.000000000    19.380885322
     2.451634423     1.374012139     1.000000000    22.253784130
     2.461641094     1.412207573     1.000000000    25.726085107
     2.471647765     1.452181118     1.000000000    29.794039484
     2.481654436     1.494054960     1.000000000    34.274953650
     2.491661107     1.537962687     1.000000000    38.742142011
     2.501667779     1.584050659     1.000000000    42.650434226
     2.511674450     1.632479564     1.000000000    45.655624402
     2.521681121     1.683426210     1.000000000    47.744348970
     2.531687792     1.737085599     1.000000000    49.003580123
     2.541694463     1.793673311     1.000000000    49.516778786
     2.551701134     1.853428290     1.000000000    49.544220670
     2.561707805     1.916616072     1.000000000    49.469772023
     2.571714476     1.983532569     1.000000000    49.441014516
     2.581721147     2.054508506     1.000000000    49.246205888
     2.591727819     2.129914653     1.000000000    48.666269714
     2.601734490     2.210168011     1.000000000    47.878623571
     2.611741161     2.295739166     1.000000000    47.409964428
     2.621747832     2.387161071     1.000000000    47.802595416
     2.631754503     2.485039579     1.000000000    49.435176621
     2.641761174     2.590066141     1.000000000    52.559516294
     2.651767845     2.703033205     1.000000000    57.397520469
     2.661774516     2.824852972     1.000000000    64.203034451
     2.671781187     2.956580397     1.000000000    73.260596375
     2.681787859     3.099441554     1.000000000    84.798255462
     2.691794530     3.254868840     1.000000000    98.789433606
     2.701801201     3.424544967     1.000000000   114.704401640
     2.711807872     3.610458310     1.000000000   131.494731959
     2.721814543     3.814973066     1.000000000   148.083383158
     2.731821214     4.040918851     1.000000000   163.820034052
     2.741827885     4.291706051     1.000000000   177.981029206
     2.751834556     4.571475518     1.000000000   188.998303816
     2.761841227     4.885294488     1.000000000   194.881595300
     2.771847899     5.239415134     1.000000000   194.504506773
     2.781854570     5.641618600     1.000000000   188.086829741
     2.791861241     6.101676343     1.000000000   176.320178362
     2.801867912     6.631972886     1.000000000   159.932270056
     2.811874583     7.248350459     1.000000000   140.508015403
     2.821881254     7.971255790     1.000000000   120.554985375
     2.831887925     8.827288787     1.000000000   102.296217338
     2.841894596     9.851257723     1.000000000    86.861672944
     2.851901268    11.088795151     1.000000000    74.432889534
     2.861907939    12.599377186     1.000000000    64.711643481
     2.871914610    14.458961751     1.000000000    57.264657845
     2.881921281    16.759879646     1.000000000    51.688530162
     2.891927952    19.602204949     1.000000000    47.666042657
     2.901934623    23.065311527     1.000000000    44.975337889
     2.911941294    27.145535261     1.000000000    43.484187869
     2.921947965    31.665103960     1.000000000    43.142775266
     2.931954636    36.220310981     1.000000000    43.978935129
     2.941961308    40.273381045     1.000000000    46.094205066
     2.951967979    43.346698463     1.000000000    49.652495813
     2.961974650    45.161029343     1.000000000    54.840928506
     2.971981321    45.759040777     1.000000000    61.760707986
     2.981987992    45.552947990     1.000000000    70.185187345
     2.991994663    45.001708775     1.000000000    79.167872164
     3.002001334    44.136507537     1.000000000    86.738869014
     3.012008005    42.522835006     1.000000000    90.333089916
     3.022014676    39.789106995     1.000000000    88.281237892
