# k =   0.000000   0.000000   0.000000 spin = 1
# <ib|Sigma_CH[1..Nb]|ib> (eV), partial and symmetrized sum with up to Nb "inner" bands
# Reporting only VBM and CBM, use 'full_ch_conv_log 1' keyword for full report.
# 1/N extrap for CH(vbm) CH(cbm) diff =  -9.65124514E+00  -9.04308202E+00   6.08163123E-01
# Error est. for CH(vbm) CH(cbm) diff =   1.15150541E+00   1.21114792E+00   5.96425186E-02
#    Nb          CH(vbm)          CH(cbm)             diff
      1  -2.26932379E-01  -1.72775364E-01   5.41570155E-02
      2  -4.53864754E-01  -3.45550754E-01   1.08314000E-01
      3  -8.92196693E-01  -5.48634379E-01   3.43562314E-01
      4  -1.33052869E+00  -7.51718090E-01   5.78810597E-01
      5  -1.96668865E+00  -1.00584242E+00   9.60846224E-01
      6  -2.60284867E+00  -1.25996684E+00   1.34288183E+00
      7  -3.49379709E+00  -1.47469968E+00   2.01909740E+00
      8  -4.38474550E+00  -1.68943252E+00   2.69531298E+00
      9  -4.48873682E+00  -2.60333548E+00   1.88540134E+00
     10  -4.59272814E+00  -3.51723841E+00   1.07548973E+00
     11  -4.71468115E+00  -3.93863224E+00   7.76048912E-01
     12  -4.83663418E+00  -4.36002608E+00   4.76608091E-01
     13  -5.04053424E+00  -4.51309697E+00   5.27437264E-01
     14  -5.24443431E+00  -4.66616786E+00   5.78266449E-01
     15  -5.44345618E+00  -4.90258108E+00   5.40875104E-01
     16  -5.64247805E+00  -5.13899427E+00   5.03483780E-01
     17  -5.80645535E+00  -5.30094971E+00   5.05505641E-01
     18  -5.97043263E+00  -5.46290512E+00   5.07527514E-01
     19  -6.12511394E+00  -5.57538675E+00   5.49727186E-01
     20  -6.27979524E+00  -5.68786838E+00   5.91926863E-01
     21  -6.37435466E+00  -5.81208676E+00   5.62267904E-01
     22  -6.46891408E+00  -5.93630513E+00   5.32608955E-01
     23  -6.61896782E+00  -6.04548343E+00   5.73484390E-01
     24  -6.76902156E+00  -6.15466175E+00   6.14359804E-01
     25  -6.84179722E+00  -6.24655519E+00   5.95242030E-01
     26  -6.91457290E+00  -6.33844867E+00   5.76124238E-01
     27  -6.98573763E+00  -6.43032202E+00   5.55415605E-01
     28  -7.05690236E+00  -6.52219538E+00   5.34706981E-01
     29  -7.12154637E+00  -6.59576650E+00   5.25779875E-01
     30  -7.18619040E+00  -6.66933762E+00   5.16852772E-01
     31  -7.27511279E+00  -6.72765740E+00   5.47455386E-01
     32  -7.36403518E+00  -6.78597718E+00   5.78057997E-01
     33  -7.43251007E+00  -6.84779921E+00   5.84710868E-01
     34  -7.50098497E+00  -6.90962122E+00   5.91363744E-01
     35  -7.55904818E+00  -6.95414042E+00   6.04907769E-01
     36  -7.61711140E+00  -6.99865963E+00   6.18451768E-01
     37  -7.66719405E+00  -7.04596360E+00   6.21230457E-01
     38  -7.71727670E+00  -7.09326756E+00   6.24009143E-01
     39  -7.77616748E+00  -7.14740257E+00   6.28764912E-01
     40  -7.83505826E+00  -7.20153759E+00   6.33520674E-01
     41  -7.87396106E+00  -7.24810817E+00   6.25852891E-01
     42  -7.91286386E+00  -7.29467875E+00   6.18185110E-01
     43  -7.95750885E+00  -7.34128407E+00   6.16224779E-01
     44  -8.00215383E+00  -7.38788938E+00   6.14264451E-01
     45  -8.04219083E+00  -7.42487980E+00   6.17311029E-01
     46  -8.08222783E+00  -7.46187021E+00   6.20357616E-01
     47  -8.10865979E+00  -7.48925420E+00   6.19405585E-01
     48  -8.13509175E+00  -7.51663819E+00   6.18453552E-01
     49  -8.18373650E+00  -7.54878313E+00   6.34953379E-01
     50  -8.23238126E+00  -7.58092805E+00   6.51453207E-01
     51  -8.26903112E+00  -7.61014445E+00   6.58886668E-01
     52  -8.30568099E+00  -7.63936086E+00   6.66320127E-01
     53  -8.33873784E+00  -7.66836148E+00   6.70376356E-01
     54  -8.37179469E+00  -7.69736210E+00   6.74432588E-01
     55  -8.39407716E+00  -7.72552849E+00   6.68548672E-01
     56  -8.41635963E+00  -7.75369488E+00   6.62664755E-01
     57  -8.43831513E+00  -7.77354956E+00   6.64765570E-01
     58  -8.46027063E+00  -7.79340424E+00   6.66866387E-01
     59  -8.48000518E+00  -7.81266917E+00   6.67336015E-01
     60  -8.49973974E+00  -7.83193410E+00   6.67805641E-01
# k =  -0.000000  -0.000000   0.250000 spin = 1
# <ib|Sigma_CH[1..Nb]|ib> (eV), partial and symmetrized sum with up to Nb "inner" bands
# Reporting only VBM and CBM, use 'full_ch_conv_log 1' keyword for full report.
# 1/N extrap for CH(vbm) CH(cbm) diff =  -9.57502335E+00  -9.20719741E+00   3.67825936E-01
# Error est. for CH(vbm) CH(cbm) diff =   1.11161513E+00   1.24650561E+00   1.34890486E-01
#    Nb          CH(vbm)          CH(cbm)             diff
      1  -2.53376726E-01  -2.17641295E-01   3.57354304E-02
      2  -5.06751592E-01  -4.35277186E-01   7.14744056E-02
      3  -9.11308481E-01  -7.27681126E-01   1.83627355E-01
      4  -1.31586518E+00  -1.02008421E+00   2.95780971E-01
      5  -1.69917902E+00  -1.21620619E+00   4.82972830E-01
      6  -2.08345937E+00  -1.41232392E+00   6.71135450E-01
      7  -3.24813921E+00  -1.54832741E+00   1.69981180E+00
      8  -4.41417993E+00  -1.68430486E+00   2.72987507E+00
      9  -4.53741730E+00  -2.65543772E+00   1.88197958E+00
     10  -4.66065249E+00  -3.62658279E+00   1.03406970E+00
     11  -4.82660561E+00  -3.83286690E+00   9.93738707E-01
     12  -4.99255612E+00  -4.03917273E+00   9.53383392E-01
     13  -5.21531498E+00  -4.36846324E+00   8.46851741E-01
     14  -5.43758753E+00  -4.69776067E+00   7.39826865E-01
     15  -5.62217474E+00  -4.96533097E+00   6.56843765E-01
     16  -5.80697461E+00  -5.23290392E+00   5.74070686E-01
     17  -5.95646511E+00  -5.37390575E+00   5.82559363E-01
     18  -6.10583824E+00  -5.51493367E+00   5.90904574E-01
     19  -6.25346124E+00  -5.61986948E+00   6.33591755E-01
     20  -6.40097558E+00  -5.72478027E+00   6.76195309E-01
     21  -6.49643028E+00  -5.85685218E+00   6.39578105E-01
     22  -6.59188495E+00  -5.98892151E+00   6.02963440E-01
     23  -6.71336401E+00  -6.10910034E+00   6.04263668E-01
     24  -6.83484298E+00  -6.22926980E+00   6.05573186E-01
     25  -6.90625635E+00  -6.33526031E+00   5.70996036E-01
     26  -6.97766876E+00  -6.44124830E+00   5.36420465E-01
     27  -7.04677335E+00  -6.52801965E+00   5.18753696E-01
     28  -7.11587642E+00  -6.61478673E+00   5.01089696E-01
     29  -7.17859712E+00  -6.67928160E+00   4.99315523E-01
     30  -7.24131782E+00  -6.74377645E+00   4.97541369E-01
     31  -7.32055327E+00  -6.81675761E+00   5.03795653E-01
     32  -7.39978873E+00  -6.88973898E+00   5.10049752E-01
     33  -7.46476527E+00  -6.94862262E+00   5.16142658E-01
     34  -7.52973075E+00  -7.00750724E+00   5.22223506E-01
     35  -7.58301666E+00  -7.06919158E+00   5.13825072E-01
     36  -7.63630039E+00  -7.13087773E+00   5.05422659E-01
     37  -7.68564598E+00  -7.18372657E+00   5.01919413E-01
     38  -7.73496445E+00  -7.23657047E+00   4.98393978E-01
     39  -7.78797576E+00  -7.28452086E+00   5.03454902E-01
     40  -7.84104360E+00  -7.33247262E+00   5.08570983E-01
     41  -7.87788422E+00  -7.37771527E+00   5.00168948E-01
     42  -7.91472529E+00  -7.42295639E+00   4.91768898E-01
     43  -7.95795226E+00  -7.46345827E+00   4.94493993E-01
     44  -8.00117866E+00  -7.50396165E+00   4.97217010E-01
     45  -8.03716483E+00  -7.54225312E+00   4.94911712E-01
     46  -8.07315119E+00  -7.58053950E+00   4.92611693E-01
     47  -8.10012215E+00  -7.61164500E+00   4.88477154E-01
     48  -8.12709283E+00  -7.64275907E+00   4.84333764E-01
     49  -8.16995001E+00  -7.67710631E+00   4.92843709E-01
     50  -8.21280633E+00  -7.71145352E+00   5.01352805E-01
     51  -8.24540297E+00  -7.73848887E+00   5.06914093E-01
     52  -8.27799732E+00  -7.76552440E+00   5.12472921E-01
     53  -8.30894954E+00  -7.79386047E+00   5.15089078E-01
     54  -8.33989543E+00  -7.82219117E+00   5.17704254E-01
     55  -8.36125114E+00  -7.84960867E+00   5.11642475E-01
     56  -8.38261386E+00  -7.87703846E+00   5.05575398E-01
     57  -8.40305679E+00  -7.89872943E+00   5.04327353E-01
     58  -8.42350823E+00  -7.92043542E+00   5.03072815E-01
     59  -8.44345763E+00  -7.94056245E+00   5.02895173E-01
     60  -8.46340822E+00  -7.96069180E+00   5.02716423E-01
# k =  -0.000000  -0.000000   0.500000 spin = 1
# <ib|Sigma_CH[1..Nb]|ib> (eV), partial and symmetrized sum with up to Nb "inner" bands
# Reporting only VBM and CBM, use 'full_ch_conv_log 1' keyword for full report.
# 1/N extrap for CH(vbm) CH(cbm) diff =  -9.57851545E+00  -9.19203985E+00   3.86475591E-01
# Error est. for CH(vbm) CH(cbm) diff =   1.08952174E+00   1.20910790E+00   1.19586160E-01
#    Nb          CH(vbm)          CH(cbm)             diff
      1  -2.72133823E-01  -2.31993035E-01   4.01407879E-02
      2  -5.44267644E-01  -4.63986074E-01   8.02815700E-02
      3  -9.16815872E-01  -7.61286436E-01   1.55529435E-01
      4  -1.28936414E+00  -1.05858680E+00   2.30777334E-01
      5  -1.66143312E+00  -1.27350729E+00   3.87925827E-01
      6  -2.03350214E+00  -1.48842777E+00   5.45074366E-01
      7  -3.27741835E+00  -1.60526362E+00   1.67215472E+00
      8  -4.52133457E+00  -1.72209947E+00   2.79923510E+00
      9  -4.64207359E+00  -2.76355661E+00   1.87851697E+00
     10  -4.76281262E+00  -3.80501376E+00   9.57798853E-01
     11  -4.92902870E+00  -3.96223384E+00   9.66794864E-01
     12  -5.09524480E+00  -4.11945392E+00   9.75790877E-01
     13  -5.31952913E+00  -4.51835304E+00   8.01176088E-01
     14  -5.54381349E+00  -4.91725218E+00   6.26561312E-01
     15  -5.73944939E+00  -5.13314169E+00   6.06307701E-01
     16  -5.93508532E+00  -5.34903117E+00   5.86054146E-01
     17  -6.06723262E+00  -5.47972272E+00   5.87509892E-01
     18  -6.19937990E+00  -5.61041428E+00   5.88965624E-01
     19  -6.34811381E+00  -5.70749013E+00   6.40623680E-01
     20  -6.49684775E+00  -5.80456597E+00   6.92281773E-01
     21  -6.59173979E+00  -5.92573118E+00   6.66008608E-01
     22  -6.68663184E+00  -6.04689639E+00   6.39735445E-01
     23  -6.79359765E+00  -6.15722914E+00   6.36368512E-01
     24  -6.90056349E+00  -6.26756189E+00   6.33001592E-01
     25  -6.96940464E+00  -6.37853372E+00   5.90870912E-01
     26  -7.03824580E+00  -6.48950556E+00   5.48740247E-01
     27  -7.10512838E+00  -6.57292858E+00   5.32199799E-01
     28  -7.17201096E+00  -6.65635161E+00   5.15659352E-01
     29  -7.23415468E+00  -6.72088238E+00   5.13272300E-01
     30  -7.29629841E+00  -6.78541316E+00   5.10885253E-01
     31  -7.37195639E+00  -6.85743422E+00   5.14522165E-01
     32  -7.44761435E+00  -6.92945528E+00   5.18159071E-01
     33  -7.51246122E+00  -6.98812124E+00   5.24339986E-01
     34  -7.57730810E+00  -7.04678719E+00   5.30520905E-01
     35  -7.62939860E+00  -7.11061384E+00   5.18784755E-01
     36  -7.68148909E+00  -7.17444049E+00   5.07048604E-01
     37  -7.73109110E+00  -7.22673348E+00   5.04357618E-01
     38  -7.78069309E+00  -7.27902647E+00   5.01666621E-01
     39  -7.83151338E+00  -7.32564779E+00   5.05865588E-01
     40  -7.88233368E+00  -7.37226911E+00   5.10064575E-01
     41  -7.91757305E+00  -7.41568003E+00   5.01893016E-01
     42  -7.95281240E+00  -7.45909095E+00   4.93721450E-01
     43  -7.99507489E+00  -7.49771404E+00   4.97360848E-01
     44  -8.03733737E+00  -7.53633713E+00   5.01000246E-01
     45  -8.07214339E+00  -7.57396428E+00   4.98179101E-01
     46  -8.10694940E+00  -7.61159144E+00   4.95357958E-01
     47  -8.13404861E+00  -7.64263214E+00   4.91416468E-01
     48  -8.16114782E+00  -7.67367283E+00   4.87474983E-01
     49  -8.20246710E+00  -7.70818321E+00   4.94283886E-01
     50  -8.24378638E+00  -7.74269360E+00   5.01092787E-01
     51  -8.27521840E+00  -7.76834274E+00   5.06875665E-01
     52  -8.30665042E+00  -7.79399188E+00   5.12658543E-01
     53  -8.33729308E+00  -7.82128925E+00   5.16003823E-01
     54  -8.36793573E+00  -7.84858663E+00   5.19349102E-01
     55  -8.38862757E+00  -7.87529316E+00   5.13334407E-01
     56  -8.40931940E+00  -7.90199969E+00   5.07319712E-01
     57  -8.42905386E+00  -7.92317986E+00   5.05874004E-01
     58  -8.44878832E+00  -7.94436002E+00   5.04428294E-01
     59  -8.46889101E+00  -7.96364599E+00   5.05245023E-01
     60  -8.48899370E+00  -7.98293195E+00   5.06061751E-01
# k =   0.000000   0.000000   0.750000 spin = 1
# <ib|Sigma_CH[1..Nb]|ib> (eV), partial and symmetrized sum with up to Nb "inner" bands
# Reporting only VBM and CBM, use 'full_ch_conv_log 1' keyword for full report.
# 1/N extrap for CH(vbm) CH(cbm) diff =  -9.57502208E+00  -9.20719766E+00   3.67824423E-01
# Error est. for CH(vbm) CH(cbm) diff =   1.11161370E+00   1.24650564E+00   1.34891940E-01
#    Nb          CH(vbm)          CH(cbm)             diff
      1  -2.53374901E-01  -2.17635952E-01   3.57389493E-02
      2  -5.06751659E-01  -4.35277319E-01   7.14743405E-02
      3  -9.11308229E-01  -7.27680296E-01   1.83627933E-01
      4  -1.31586507E+00  -1.02008414E+00   2.95780933E-01
      5  -1.70014539E+00  -1.21620188E+00   4.83943509E-01
      6  -2.08345927E+00  -1.41232387E+00   6.71135398E-01
      7  -3.24949999E+00  -1.54830133E+00   1.70119866E+00
      8  -4.41417982E+00  -1.68430482E+00   2.72987500E+00
      9  -4.53741500E+00  -2.65544988E+00   1.88196512E+00
     10  -4.66065237E+00  -3.62658275E+00   1.03406962E+00
     11  -4.82660297E+00  -3.83288856E+00   9.93714412E-01
     12  -4.99255619E+00  -4.03917266E+00   9.53383526E-01
     13  -5.21482878E+00  -4.36847006E+00   8.46358717E-01
     14  -5.43758772E+00  -4.69776057E+00   7.39827149E-01
     15  -5.62238766E+00  -4.96533380E+00   6.57053858E-01
     16  -5.80697496E+00  -5.23290433E+00   5.74070625E-01
     17  -5.95634816E+00  -5.37393230E+00   5.82415865E-01
     18  -6.10583871E+00  -5.51493417E+00   5.90904540E-01
     19  -6.25335323E+00  -5.61984501E+00   6.33508227E-01
     20  -6.40097649E+00  -5.72478087E+00   6.76195618E-01
     21  -6.49643114E+00  -5.85685010E+00   6.39581047E-01
     22  -6.59188584E+00  -5.98892190E+00   6.02963939E-01
     23  -6.71336488E+00  -6.10909153E+00   6.04273345E-01
     24  -6.83484402E+00  -6.22927055E+00   6.05573474E-01
     25  -6.90625647E+00  -6.33525854E+00   5.70997928E-01
     26  -6.97766991E+00  -6.44124907E+00   5.36420840E-01
     27  -7.04677308E+00  -6.52801615E+00   5.18756923E-01
     28  -7.11587776E+00  -6.61478752E+00   5.01090239E-01
     29  -7.17859839E+00  -6.67928234E+00   4.99316046E-01
     30  -7.24131902E+00  -6.74377718E+00   4.97541843E-01
     31  -7.32055418E+00  -6.81675852E+00   5.03795658E-01
     32  -7.39978930E+00  -6.88973965E+00   5.10049645E-01
     33  -7.46475474E+00  -6.94862413E+00   5.16130610E-01
     34  -7.52973124E+00  -7.00750760E+00   5.22223640E-01
     35  -7.58301498E+00  -7.06919381E+00   5.13821171E-01
     36  -7.63630088E+00  -7.13087820E+00   5.05422680E-01
     37  -7.68561936E+00  -7.18372213E+00   5.01897229E-01
     38  -7.73496494E+00  -7.23657099E+00   4.98393948E-01
     39  -7.78803276E+00  -7.28452278E+00   5.03509979E-01
     40  -7.84104407E+00  -7.33247319E+00   5.08570876E-01
     41  -7.87788516E+00  -7.37771430E+00   5.00170862E-01
     42  -7.91472579E+00  -7.42295694E+00   4.91768851E-01
     43  -7.95795222E+00  -7.46346030E+00   4.94491917E-01
     44  -8.00117923E+00  -7.50396217E+00   4.97217065E-01
     45  -8.03716553E+00  -7.54224846E+00   4.94917074E-01
     46  -8.07315166E+00  -7.58053985E+00   4.92611810E-01
     47  -8.10012232E+00  -7.61165391E+00   4.88468406E-01
     48  -8.12709327E+00  -7.64275941E+00   4.84333864E-01
     49  -8.16994961E+00  -7.67710662E+00   4.92842986E-01
     50  -8.21280682E+00  -7.71145386E+00   5.01352953E-01
     51  -8.24540111E+00  -7.73848935E+00   5.06911759E-01
     52  -8.27799770E+00  -7.76552467E+00   5.12473024E-01
     53  -8.30894355E+00  -7.79385535E+00   5.15088203E-01
     54  -8.33989574E+00  -7.82219139E+00   5.17704356E-01
     55  -8.36125843E+00  -7.84962119E+00   5.11637239E-01
     56  -8.38261411E+00  -7.87703869E+00   5.05575417E-01
     57  -8.40306551E+00  -7.89874468E+00   5.04320829E-01
     58  -8.42350840E+00  -7.92043567E+00   5.03072731E-01
     59  -8.44345899E+00  -7.94056499E+00   5.02893993E-01
     60  -8.46340838E+00  -7.96069201E+00   5.02716363E-01
# k =   0.000000   0.250000  -0.000000 spin = 1
# <ib|Sigma_CH[1..Nb]|ib> (eV), partial and symmetrized sum with up to Nb "inner" bands
# Reporting only VBM and CBM, use 'full_ch_conv_log 1' keyword for full report.
# 1/N extrap for CH(vbm) CH(cbm) diff =  -9.57325772E+00  -9.21116132E+00   3.62096398E-01
# Error est. for CH(vbm) CH(cbm) diff =   1.10984950E+00   1.25046956E+00   1.40620056E-01
#    Nb          CH(vbm)          CH(cbm)             diff
      1  -2.53371728E-01  -2.17551038E-01   3.58206906E-02
      2  -5.06745597E-01  -4.35106906E-01   7.16386915E-02
      3  -9.11304183E-01  -7.27592591E-01   1.83711593E-01
      4  -1.31586517E+00  -1.02008420E+00   2.95780964E-01
      5  -1.65603057E+00  -1.22344935E+00   4.32581220E-01
      6  -1.99593702E+00  -1.42680105E+00   5.69135971E-01
      7  -3.20525530E+00  -1.55555419E+00   1.64970111E+00
      8  -4.41417993E+00  -1.68430485E+00   2.72987508E+00
      9  -4.53747427E+00  -2.65412639E+00   1.88334788E+00
     10  -4.66076977E+00  -3.62394267E+00   1.03682710E+00
     11  -4.83358165E+00  -3.82007515E+00   1.01350650E+00
     12  -5.00639440E+00  -4.01619430E+00   9.90200107E-01
     13  -5.22283516E+00  -4.35086091E+00   8.71974251E-01
     14  -5.44019087E+00  -4.68550989E+00   7.54680980E-01
     15  -5.62381019E+00  -4.95920506E+00   6.64605135E-01
     16  -5.80697460E+00  -5.23290389E+00   5.74070710E-01
     17  -5.95530893E+00  -5.37836602E+00   5.76942905E-01
     18  -6.10379279E+00  -5.52380833E+00   5.79984461E-01
     19  -6.25235213E+00  -5.62429420E+00   6.28057926E-01
     20  -6.40097558E+00  -5.72478025E+00   6.76195331E-01
     21  -6.49640891E+00  -5.85682700E+00   6.39581908E-01
     22  -6.59184227E+00  -5.98887592E+00   6.02966352E-01
     23  -6.71334260E+00  -6.10907049E+00   6.04272109E-01
     24  -6.83484298E+00  -6.22926968E+00   6.05573307E-01
     25  -6.90639348E+00  -6.33338569E+00   5.73007791E-01
     26  -6.97794104E+00  -6.43749286E+00   5.40448179E-01
     27  -7.04690727E+00  -6.52613477E+00   5.20772496E-01
     28  -7.11587642E+00  -6.61478671E+00   5.01089716E-01
     29  -7.17859470E+00  -6.67928761E+00   4.99307085E-01
     30  -7.24131310E+00  -6.74378939E+00   4.97523708E-01
     31  -7.32055097E+00  -6.81676456E+00   5.03786408E-01
     32  -7.39978872E+00  -6.88973897E+00   5.10049758E-01
     33  -7.46478820E+00  -6.94906405E+00   5.15724147E-01
     34  -7.52978467E+00  -7.00838770E+00   5.21396968E-01
     35  -7.58303951E+00  -7.06963347E+00   5.13406034E-01
     36  -7.63630039E+00  -7.13087771E+00   5.05422681E-01
     37  -7.68604048E+00  -7.18266499E+00   5.03375490E-01
     38  -7.73580922E+00  -7.23445063E+00   5.01358594E-01
     39  -7.78841881E+00  -7.28346244E+00   5.04956373E-01
     40  -7.84104360E+00  -7.33247260E+00   5.08571005E-01
     41  -7.87790123E+00  -7.37773442E+00   5.00166808E-01
     42  -7.91475895E+00  -7.42299596E+00   4.91762992E-01
     43  -7.95653893E+00  -7.46334664E+00   4.93192284E-01
     44  -7.99831866E+00  -7.50369810E+00   4.94620562E-01
     45  -8.03571855E+00  -7.54209368E+00   4.93624872E-01
     46  -8.07311831E+00  -7.58049318E+00   4.92625128E-01
     47  -8.09946227E+00  -7.61219070E+00   4.87271566E-01
     48  -8.12580658E+00  -7.64387762E+00   4.81928959E-01
     49  -8.16695463E+00  -7.67701052E+00   4.89944114E-01
     50  -8.20810379E+00  -7.71014361E+00   4.97960176E-01
     51  -8.24305113E+00  -7.73783380E+00   5.05217337E-01
     52  -8.27799732E+00  -7.76552436E+00   5.12472952E-01
     53  -8.30903980E+00  -7.79363131E+00   5.15408490E-01
     54  -8.34009161E+00  -7.82175070E+00   5.18340904E-01
     55  -8.36134926E+00  -7.84939136E+00   5.11957903E-01
     56  -8.38261387E+00  -7.87703842E+00   5.05575455E-01
     57  -8.40305362E+00  -7.89872379E+00   5.04329828E-01
     58  -8.42350927E+00  -7.92043567E+00   5.03073602E-01
     59  -8.44346273E+00  -7.94057019E+00   5.02892537E-01
     60  -8.46340822E+00  -7.96069177E+00   5.02716454E-01
